,S1_D1 hbo,S1_D3 hbo,S2_D1 hbo,S2_D2 hbo,S2_D4 hbo,S3_D1 hbo,S3_D3 hbo,S3_D4 hbo,S3_D5 hbo,S4_D2 hbo,S4_D4 hbo,S4_D6 hbo,S4_D11 hbo,S5_D3 hbo,S5_D5 hbo,S5_D7 hbo,S6_D4 hbo,S6_D5 hbo,S6_D6 hbo,S6_D8 hbo,S7_D5 hbo,S7_D7 hbo,S7_D8 hbo,S8_D6 hbo,S8_D8 hbo,S8_D15 hbo,S9_D2 hbo,S9_D9 hbo,S9_D11 hbo,S10_D9 hbo,S10_D10 hbo,S10_D12 hbo,S11_D9 hbo,S11_D11 hbo,S11_D12 hbo,S11_D13 hbo,S12_D10 hbo,S12_D12 hbo,S12_D14 hbo,S13_D6 hbo,S13_D11 hbo,S13_D13 hbo,S13_D15 hbo,S14_D12 hbo,S14_D13 hbo,S14_D14 hbo,S14_D16 hbo,S15_D13 hbo,S15_D15 hbo,S15_D16 hbo,S16_D14 hbo,S16_D16 hbo
S1_D1 hbo,0.13503649635036497,0.051094890510948905,0.0,0.040145985401459854,0.0,0.043795620437956206,0.040145985401459854,0.032846715328467155,0.010948905109489052,0.0364963503649635,0.014598540145985401,0.010948905109489052,0.040145985401459854,0.01824817518248175,0.0,0.0,0.040145985401459854,0.0,0.014598540145985401,0.0364963503649635,0.0,0.0,0.0,0.0,0.014598540145985401,0.0,0.0,0.0,0.0,0.0,0.0,0.021897810218978103,0.04744525547445255,0.021897810218978103,0.0,0.021897810218978103,0.021897810218978103,0.0036496350364963502,0.021897810218978103,0.021897810218978103,0.021897810218978103,0.021897810218978103,0.040145985401459854,0.0072992700729927005,0.040145985401459854,0.0364963503649635,0.025547445255474453,0.0,0.010948905109489052,0.0,0.01824817518248175,0.014598540145985401
S1_D3 hbo,0.08333333333333333,0.20238095238095238,0.0,0.0,0.0,0.10714285714285714,0.017857142857142856,0.0,0.0,0.0,0.05357142857142857,0.0,0.0,0.023809523809523808,0.0,0.0,0.0,0.0,0.03571428571428571,0.0,0.0,0.0,0.0,0.011904761904761904,0.0,0.0,0.0,0.0,0.0,0.0,0.0,0.023809523809523808,0.023809523809523808,0.08333333333333333,0.0,0.02976190476190476,0.13095238095238096,0.017857142857142856,0.07738095238095238,0.047619047619047616,0.02976190476190476,0.0,0.0,0.0,0.0,0.0,0.0,0.0,0.0,0.0,0.0,0.0
S2_D1 hbo,0.0,0.0,0.1,0.0,0.0,0.0,0.0,0.007142857142857143,0.0,0.0,0.06428571428571428,0.0,0.014285714285714285,0.0,0.02142857142857143,0.0,0.06428571428571428,0.0,0.06428571428571428,0.0,0.007142857142857143,0.0,0.0,0.06428571428571428,0.0,0.07142857142857142,0.08571428571428572,0.06428571428571428,0.06428571428571428,0.0,0.0,0.06428571428571428,0.0,0.007142857142857143,0.06428571428571428,0.0,0.0,0.0,0.0,0.0,0.06428571428571428,0.06428571428571428,0.0,0.03571428571428571,0.0,0.0,0.0,0.007142857142857143,0.0,0.0,0.0,0.0
S2_D2 hbo,0.06896551724137931,0.0049261083743842365,0.0,0.11822660098522167,0.0,0.019704433497536946,0.09852216748768473,0.0,0.024630541871921183,0.10837438423645321,0.0,0.0,0.0,0.014778325123152709,0.0,0.0,0.0,0.0,0.0049261083743842365,0.0,0.0,0.0,0.0,0.009852216748768473,0.0,0.0,0.0,0.0,0.0,0.0,0.0,0.029556650246305417,0.11330049261083744,0.06896551724137931,0.0,0.04433497536945813,0.04926108374384237,0.0,0.034482758620689655,0.034482758620689655,0.034482758620689655,0.0,0.0,0.0,0.0,0.0,0.0,0.0,0.024630541871921183,0.0,0.04926108374384237,0.04433497536945813
S2_D4 hbo,0.0,0.0,0.0,0.0,0.12,0.08,0.0,0.0,0.10666666666666667,0.0,0.05333333333333334,0.09333333333333334,0.0,0.0,0.0,0.0,0.02666666666666667,0.0,0.06666666666666667,0.0,0.0,0.0,0.0,0.08,0.0,0.04,0.0,0.0,0.0,0.0,0.0,0.0,0.05333333333333334,0.08,0.013333333333333334,0.0,0.0,0.0,0.0,0.04,0.10666666666666667,0.04,0.0,0.0,0.0,0.0,0.0,0.0,0.0,0.0,0.0,0.0
S3_D1 hbo,0.04406779661016949,0.061016949152542375,0.0,0.006779661016949152,0.020338983050847456,0.17627118644067796,0.020338983050847456,0.023728813559322035,0.010169491525423728,0.006779661016949152,0.061016949152542375,0.01694915254237288,0.02711864406779661,0.0,0.0,0.0,0.02711864406779661,0.0,0.020338983050847456,0.02711864406779661,0.0,0.0,0.0,0.010169491525423728,0.010169491525423728,0.003389830508474576,0.0,0.0,0.0,0.0,0.0,0.01694915254237288,0.02711864406779661,0.06440677966101695,0.0,0.01694915254237288,0.06440677966101695,0.010169491525423728,0.04067796610169491,0.03389830508474576,0.02711864406779661,0.01694915254237288,0.02711864406779661,0.0,0.02711864406779661,0.02711864406779661,0.023728813559322035,0.0,0.0,0.0,0.003389830508474576,0.0
S3_D3 hbo,0.06306306306306306,0.02252252252252252,0.0,0.08558558558558559,0.0,0.03153153153153153,0.1036036036036036,0.0,0.03153153153153153,0.08108108108108109,0.009009009009009009,0.0,0.0,0.0045045045045045045,0.0,0.0,0.0,0.0,0.013513513513513514,0.0,0.0,0.0,0.0,0.0045045045045045045,0.0,0.0,0.0,0.0,0.0,0.0,0.0,0.036036036036036036,0.0945945945945946,0.06306306306306306,0.0,0.04954954954954955,0.05855855855855856,0.0,0.04954954954954955,0.036036036036036036,0.04054054054054054,0.0,0.0,0.0,0.0,0.0,0.0,0.0,0.013513513513513514,0.0,0.05855855855855856,0.04954954954954955
S3_D4 hbo,0.07964601769911504,0.0,0.0,0.0,0.0,0.07079646017699115,0.0,0.07079646017699115,0.0,0.0,0.04424778761061947,0.017699115044247787,0.07964601769911504,0.0,0.0,0.0,0.08849557522123894,0.0,0.008849557522123894,0.07964601769911504,0.0,0.0,0.0,0.008849557522123894,0.035398230088495575,0.008849557522123894,0.0,0.0,0.008849557522123894,0.0,0.0,0.008849557522123894,0.0,0.008849557522123894,0.008849557522123894,0.0,0.0,0.0,0.0,0.0,0.008849557522123894,0.05309734513274336,0.07964601769911504,0.008849557522123894,0.07964601769911504,0.07964601769911504,0.061946902654867256,0.0,0.0,0.0,0.0,0.0
S3_D5 hbo,0.034013605442176874,0.0,0.0,0.034013605442176874,0.047619047619047616,0.02040816326530612,0.061224489795918366,0.0,0.17687074829931973,0.034013605442176874,0.027210884353741496,0.05442176870748299,0.0,0.013605442176870748,0.0,0.0,0.013605442176870748,0.0,0.034013605442176874,0.0,0.0,0.0,0.0,0.04081632653061224,0.0,0.02040816326530612,0.0,0.0,0.0,0.0,0.0,0.0,0.061224489795918366,0.04081632653061224,0.006802721088435374,0.0,0.0,0.0,0.0,0.02040816326530612,0.05442176870748299,0.02040816326530612,0.0,0.0,0.0,0.0,0.0,0.0,0.027210884353741496,0.0,0.08843537414965986,0.06802721088435375
S4_D2 hbo,0.07216494845360824,0.005154639175257732,0.0,0.12371134020618557,0.0,0.020618556701030927,0.0979381443298969,0.0,0.02577319587628866,0.1134020618556701,0.0,0.0,0.0,0.020618556701030927,0.0,0.0,0.0,0.0,0.005154639175257732,0.0,0.0,0.0,0.0,0.005154639175257732,0.0,0.0,0.0,0.0,0.0,0.0,0.0,0.030927835051546393,0.1134020618556701,0.061855670103092786,0.0,0.04639175257731959,0.041237113402061855,0.0,0.030927835051546393,0.030927835051546393,0.030927835051546393,0.0,0.0,0.0,0.0,0.0,0.0,0.0,0.030927835051546393,0.0,0.04639175257731959,0.04639175257731959
S4_D4 hbo,0.012861736334405145,0.022508038585209004,0.028938906752411574,0.0,0.01929260450160772,0.05466237942122187,0.006430868167202572,0.01607717041800643,0.01929260450160772,0.0,0.11254019292604502,0.01607717041800643,0.012861736334405145,0.0,0.0,0.0,0.05466237942122187,0.0,0.05466237942122187,0.012861736334405145,0.0,0.0,0.0,0.04823151125401929,0.0,0.04180064308681672,0.01607717041800643,0.03858520900321544,0.04180064308681672,0.0,0.0,0.04501607717041801,0.012861736334405145,0.04823151125401929,0.04823151125401929,0.006430868167202572,0.01929260450160772,0.0,0.012861736334405145,0.00964630225080386,0.04180064308681672,0.05787781350482315,0.012861736334405145,0.01607717041800643,0.012861736334405145,0.012861736334405145,0.012861736334405145,0.0,0.0,0.0,0.0,0.0
S4_D6 hbo,0.011904761904761904,0.0,0.0,0.0,0.05952380952380952,0.023809523809523808,0.0,0.0,0.07142857142857142,0.0,0.023809523809523808,0.17857142857142858,0.09523809523809523,0.0,0.0,0.0,0.07142857142857142,0.0,0.03571428571428571,0.011904761904761904,0.0,0.0,0.0,0.047619047619047616,0.0,0.011904761904761904,0.0,0.0,0.0,0.0,0.0,0.0,0.03571428571428571,0.047619047619047616,0.0,0.0,0.0,0.0,0.0,0.03571428571428571,0.07142857142857142,0.011904761904761904,0.09523809523809523,0.0,0.047619047619047616,0.011904761904761904,0.0,0.0,0.0,0.0,0.0,0.0
S4_D11 hbo,0.048034934497816595,0.0,0.004366812227074236,0.0,0.0,0.034934497816593885,0.0,0.039301310043668124,0.004366812227074236,0.0,0.017467248908296942,0.034934497816593885,0.18340611353711792,0.0,0.0,0.0,0.07860262008733625,0.0,0.0,0.06986899563318777,0.0,0.0,0.0,0.0,0.017467248908296942,0.0,0.039301310043668124,0.004366812227074236,0.03056768558951965,0.0,0.0,0.0,0.0,0.0,0.0,0.0,0.0,0.03056768558951965,0.0,0.0,0.021834061135371178,0.056768558951965066,0.08733624454148471,0.039301310043668124,0.08296943231441048,0.043668122270742356,0.03056768558951965,0.0,0.0,0.0,0.0,0.0
S5_D3 hbo,0.04697986577181208,0.026845637583892617,0.0,0.03355704697986577,0.0,0.0,0.020134228187919462,0.0,0.026845637583892617,0.040268456375838924,0.006711409395973154,0.0,0.0,0.11409395973154363,0.040268456375838924,0.053691275167785234,0.0,0.0,0.0,0.0,0.020134228187919462,0.040268456375838924,0.0,0.0,0.0,0.04697986577181208,0.04697986577181208,0.053691275167785234,0.026845637583892617,0.0,0.0,0.026845637583892617,0.03355704697986577,0.0,0.0,0.026845637583892617,0.0,0.04697986577181208,0.0,0.0,0.0,0.026845637583892617,0.0,0.04697986577181208,0.0,0.026845637583892617,0.020134228187919462,0.006711409395973154,0.040268456375838924,0.0,0.020134228187919462,0.03355704697986577
S5_D5 hbo,0.0,0.0,0.05194805194805195,0.0,0.0,0.0,0.0,0.0,0.0,0.0,0.0,0.0,0.0,0.07792207792207792,0.11688311688311688,0.09090909090909091,0.0,0.0,0.0,0.0,0.03896103896103896,0.07792207792207792,0.0,0.0,0.0,0.09090909090909091,0.12987012987012986,0.05194805194805195,0.0,0.0,0.0,0.0,0.0,0.0,0.0,0.0,0.0,0.09090909090909091,0.0,0.0,0.0,0.0,0.0,0.09090909090909091,0.0,0.05194805194805195,0.03896103896103896,0.0,0.0,0.0,0.0,0.0
S5_D7 hbo,0.0,0.0,0.0,0.0,0.0,0.0,0.0,0.0,0.0,0.0,0.0,0.0,0.0,0.08139534883720931,0.06976744186046512,0.12790697674418605,0.0,0.0,0.0,0.0,0.03488372093023256,0.06976744186046512,0.0,0.0,0.0,0.09302325581395349,0.11627906976744186,0.046511627906976744,0.0,0.0,0.0,0.011627906976744186,0.0,0.0,0.0,0.0,0.0,0.09302325581395349,0.0,0.0,0.0,0.0,0.0,0.09302325581395349,0.0,0.05813953488372093,0.046511627906976744,0.05813953488372093,0.0,0.0,0.0,0.0
S6_D4 hbo,0.034055727554179564,0.0,0.02476780185758514,0.0,0.01238390092879257,0.030959752321981424,0.0,0.030959752321981424,0.01238390092879257,0.0,0.05263157894736842,0.030959752321981424,0.05572755417956656,0.0,0.0,0.0,0.08978328173374613,0.0,0.04024767801857585,0.03715170278637771,0.0,0.0,0.0,0.04024767801857585,0.01238390092879257,0.04024767801857585,0.015479876160990712,0.02476780185758514,0.034055727554179564,0.0,0.0,0.030959752321981424,0.006191950464396285,0.015479876160990712,0.034055727554179564,0.0,0.0,0.009287925696594427,0.0,0.0030959752321981426,0.034055727554179564,0.06501547987616099,0.05572755417956656,0.02786377708978328,0.04643962848297214,0.030959752321981424,0.021671826625386997,0.0,0.0,0.0,0.0,0.0
S6_D5 hbo,0.0,0.0,0.0,0.0,0.0,0.0,0.0,0.0,0.0,0.0,0.0,0.0,0.0,0.0,0.0,0.0,0.0,0.0,0.0,0.0,0.0,0.0,0.0,0.0,0.0,0.0,0.0,0.0,0.0,0.0,0.0,0.0,0.0,0.0,0.0,0.0,0.0,0.0,0.0,0.0,0.0,0.0,0.0,0.0,0.0,0.0,0.0,0.0,0.0,0.0,0.0,0.0
S6_D6 hbo,0.007633587786259542,0.026717557251908396,0.03435114503816794,0.0,0.026717557251908396,0.022900763358778626,0.003816793893129771,0.003816793893129771,0.026717557251908396,0.0,0.05725190839694656,0.019083969465648856,0.0,0.0,0.0,0.0,0.04961832061068702,0.0,0.08396946564885496,0.0,0.0,0.0,0.0,0.061068702290076333,0.0,0.04961832061068702,0.019083969465648856,0.03435114503816794,0.03816793893129771,0.0,0.0,0.05725190839694656,0.030534351145038167,0.05725190839694656,0.04580152671755725,0.019083969465648856,0.026717557251908396,0.0,0.015267175572519083,0.03816793893129771,0.07251908396946564,0.05343511450381679,0.0,0.019083969465648856,0.0,0.0,0.0,0.0,0.0,0.0,0.0,0.0
S6_D8 hbo,0.06875,0.0,0.0,0.0,0.0,0.05,0.0,0.05625,0.0,0.0,0.025,0.01875,0.1,0.0,0.0,0.0,0.0875,0.0,0.0,0.09375,0.0,0.0,0.0,0.0,0.025,0.0,0.0,0.0,0.03125,0.0,0.0,0.0,0.0,0.0,0.0,0.0,0.0,0.0375,0.0,0.0,0.0,0.06875,0.0875,0.04375,0.1,0.0625,0.04375,0.0,0.0,0.0,0.0,0.0
S7_D5 hbo,0.0,0.0,0.0,0.0,0.0,0.0,0.0,0.0,0.0,0.0,0.0,0.0,0.0,0.057971014492753624,0.057971014492753624,0.057971014492753624,0.0,0.0,0.0,0.0,0.15942028985507245,0.07246376811594203,0.014492753623188406,0.0,0.08695652173913043,0.11594202898550725,0.08695652173913043,0.057971014492753624,0.0,0.0,0.0,0.0,0.0,0.0,0.0,0.0,0.0,0.057971014492753624,0.0,0.0,0.0,0.0,0.0,0.057971014492753624,0.0,0.014492753623188406,0.0,0.07246376811594203,0.0,0.028985507246376812,0.0,0.0
S7_D7 hbo,0.0,0.0,0.0,0.0,0.0,0.0,0.0,0.0,0.0,0.0,0.0,0.0,0.0,0.08695652173913043,0.08695652173913043,0.10144927536231885,0.0,0.0,0.0,0.0,0.07246376811594203,0.10144927536231885,0.0,0.0,0.0,0.10144927536231885,0.08695652173913043,0.057971014492753624,0.0,0.0,0.0,0.0,0.0,0.0,0.0,0.0,0.0,0.10144927536231885,0.0,0.0,0.0,0.0,0.0,0.10144927536231885,0.0,0.057971014492753624,0.043478260869565216,0.0,0.0,0.0,0.0,0.0
S7_D8 hbo,0.0,0.0,0.0,0.0,0.0,0.0,0.0,0.0,0.0,0.0,0.0,0.0,0.0,0.14285714285714285,0.0,0.0,0.0,0.0,0.0,0.0,0.0,0.0,0.14285714285714285,0.0,0.0,0.0,0.0,0.14285714285714285,0.14285714285714285,0.0,0.0,0.14285714285714285,0.0,0.0,0.0,0.14285714285714285,0.0,0.0,0.0,0.0,0.0,0.14285714285714285,0.0,0.0,0.0,0.0,0.0,0.0,0.0,0.0,0.0,0.0
S8_D6 hbo,0.0,0.0091324200913242,0.0319634703196347,0.0,0.0365296803652968,0.0136986301369863,0.0,0.0045662100456621,0.0365296803652968,0.0,0.0593607305936073,0.0273972602739726,0.0,0.0,0.0,0.0,0.0502283105022831,0.0,0.0639269406392694,0.0,0.0,0.0,0.0,0.1050228310502283,0.0,0.0547945205479452,0.0182648401826484,0.0319634703196347,0.0365296803652968,0.0,0.0,0.0410958904109589,0.0228310502283105,0.0593607305936073,0.045662100456621,0.0,0.0410958904109589,0.0,0.0319634703196347,0.0365296803652968,0.0684931506849315,0.0547945205479452,0.0,0.0182648401826484,0.0,0.0,0.0,0.0,0.0,0.0,0.0,0.0
S8_D8 hbo,0.05970149253731343,0.0,0.0,0.0,0.0,0.05970149253731343,0.0,0.05970149253731343,0.0,0.0,0.029850746268656716,0.0,0.05970149253731343,0.0,0.0,0.0,0.05970149253731343,0.0,0.0,0.05970149253731343,0.05970149253731343,0.0,0.029850746268656716,0.0,0.11940298507462686,0.029850746268656716,0.0,0.0,0.0,0.0,0.0,0.0,0.0,0.0,0.0,0.0,0.0,0.0,0.0,0.0,0.0,0.05970149253731343,0.05970149253731343,0.0,0.05970149253731343,0.05970149253731343,0.05970149253731343,0.04477611940298507,0.0,0.029850746268656716,0.0,0.0
S8_D15 hbo,0.0,0.0,0.020771513353115726,0.0,0.01483679525222552,0.008902077151335312,0.0,0.002967359050445104,0.01483679525222552,0.0,0.03857566765578635,0.008902077151335312,0.0,0.017804154302670624,0.017804154302670624,0.020771513353115726,0.032640949554896145,0.0,0.03857566765578635,0.0,0.02373887240356083,0.017804154302670624,0.0,0.03857566765578635,0.011869436201780416,0.10089020771513353,0.03560830860534125,0.032640949554896145,0.02373887240356083,0.0,0.0,0.06231454005934718,0.008902077151335312,0.017804154302670624,0.04747774480712166,0.0,0.0,0.02967359050445104,0.0,0.005934718100890208,0.03560830860534125,0.03560830860534125,0.0,0.05637982195845697,0.0,0.04747774480712166,0.04154302670623145,0.01483679525222552,0.017804154302670624,0.02967359050445104,0.026706231454005934,0.0
S9_D2 hbo,0.0,0.0,0.049107142857142856,0.0,0.0,0.0,0.0,0.0,0.0,0.0,0.022321428571428572,0.0,0.044642857142857144,0.03125,0.04017857142857143,0.05357142857142857,0.022321428571428572,0.0,0.022321428571428572,0.0,0.026785714285714284,0.026785714285714284,0.0,0.022321428571428572,0.008928571428571428,0.06696428571428571,0.15625,0.07142857142857142,0.022321428571428572,0.0,0.0,0.022321428571428572,0.0,0.0,0.022321428571428572,0.0,0.0,0.03125,0.0,0.0,0.04017857142857143,0.022321428571428572,0.0,0.05803571428571429,0.022321428571428572,0.017857142857142856,0.013392857142857142,0.0625,0.0,0.0,0.0,0.0
S9_D9 hbo,0.0,0.0,0.03802281368821293,0.0,0.0,0.0,0.0,0.0038022813688212928,0.0,0.0,0.053231939163498096,0.0,0.0076045627376425855,0.034220532319391636,0.019011406844106463,0.026615969581749048,0.03802281368821293,0.0,0.04182509505703422,0.0,0.011406844106463879,0.019011406844106463,0.0,0.034220532319391636,0.0,0.053231939163498096,0.07604562737642585,0.10646387832699619,0.06463878326996197,0.0,0.0,0.06463878326996197,0.0,0.0038022813688212928,0.049429657794676805,0.022813688212927757,0.0,0.019011406844106463,0.0,0.0,0.034220532319391636,0.06463878326996197,0.0,0.049429657794676805,0.022813688212927757,0.0076045627376425855,0.0038022813688212928,0.030418250950570342,0.0,0.0,0.0,0.0
S9_D11 hbo,0.007782101167315175,0.0,0.03501945525291829,0.0,0.0038910505836575876,0.0,0.0,0.007782101167315175,0.0038910505836575876,0.0,0.058365758754863814,0.0,0.03501945525291829,0.011673151750972763,0.0,0.0,0.058365758754863814,0.0,0.04669260700389105,0.027237354085603113,0.0038910505836575876,0.0,0.0,0.038910505836575876,0.0,0.042801556420233464,0.023346303501945526,0.0622568093385214,0.10116731517509728,0.0,0.0,0.07003891050583658,0.0,0.007782101167315175,0.054474708171206226,0.023346303501945526,0.0,0.027237354085603113,0.0,0.0,0.0311284046692607,0.10894941634241245,0.01556420233463035,0.058365758754863814,0.027237354085603113,0.0038910505836575876,0.0,0.0038910505836575876,0.0,0.0,0.0,0.0
S10_D9 hbo,0.0,0.0,0.0,0.0,0.0,0.0,0.0,0.0,0.0,0.0,0.0,0.0,0.0,0.0,0.0,0.0,0.0,0.0,0.0,0.0,0.0,0.0,0.0,0.0,0.0,0.0,0.0,0.0,0.0,0.0,0.0,0.0,0.0,0.0,0.0,0.0,0.0,0.0,0.0,0.0,0.0,0.0,0.0,0.0,0.0,0.0,0.0,0.0,0.0,0.0,0.0,0.0
S10_D10 hbo,0.0,0.0,0.0,0.0,0.0,0.0,0.0,0.0,0.0,0.0,0.0,0.0,0.0,0.0,0.0,0.0,0.0,0.0,0.0,0.0,0.0,0.0,0.0,0.0,0.0,0.0,0.0,0.0,0.0,0.0,1.0,0.0,0.0,0.0,0.0,0.0,0.0,0.0,0.0,0.0,0.0,0.0,0.0,0.0,0.0,0.0,0.0,0.0,0.0,0.0,0.0,0.0
S10_D12 hbo,0.015037593984962405,0.015037593984962405,0.022556390977443608,0.010025062656641603,0.005012531328320802,0.012531328320802004,0.015037593984962405,0.002506265664160401,0.005012531328320802,0.010025062656641603,0.040100250626566414,0.0,0.0,0.007518796992481203,0.0,0.0,0.03007518796992481,0.0,0.047619047619047616,0.0,0.0,0.0,0.0,0.02756892230576441,0.0,0.05263157894736842,0.012531328320802004,0.040100250626566414,0.042606516290726815,0.0,0.0,0.10025062656641603,0.022556390977443608,0.03258145363408521,0.05263157894736842,0.03759398496240601,0.02506265664160401,0.005012531328320802,0.022556390977443608,0.022556390977443608,0.047619047619047616,0.047619047619047616,0.0,0.03759398496240601,0.0,0.03508771929824561,0.02506265664160401,0.002506265664160401,0.015037593984962405,0.022556390977443608,0.03007518796992481,0.002506265664160401
S11_D9 hbo,0.04966887417218543,0.019867549668874173,0.0,0.0728476821192053,0.013245033112582781,0.023178807947019868,0.0695364238410596,0.0,0.029801324503311258,0.06622516556291391,0.006622516556291391,0.013245033112582781,0.0,0.009933774834437087,0.0,0.0,0.0,0.0,0.029801324503311258,0.0,0.0,0.0,0.0,0.023178807947019868,0.0,0.0033112582781456954,0.0,0.0,0.0,0.0,0.0,0.033112582781456956,0.10264900662251655,0.076158940397351,0.0,0.046357615894039736,0.059602649006622516,0.0,0.04304635761589404,0.052980132450331126,0.052980132450331126,0.0033112582781456954,0.0,0.0,0.0,0.0,0.006622516556291391,0.0,0.016556291390728478,0.0,0.039735099337748346,0.03642384105960265
S11_D11 hbo,0.01875,0.046875,0.0,0.03125,0.025,0.059375,0.034375,0.0,0.025,0.028125,0.040625,0.01875,0.0,0.0,0.0,0.0,0.009375,0.0,0.040625,0.0,0.0,0.0,0.0,0.04375,0.0,0.0125,0.0,0.0,0.0,0.0,0.0,0.034375,0.0625,0.125,0.00625,0.04375,0.08125,0.009375,0.04375,0.06875,0.059375,0.0125,0.0,0.0,0.0,0.0,0.0,0.0,0.0,0.0,0.0125,0.00625
S11_D12 hbo,0.0,0.0,0.0410958904109589,0.0,0.0136986301369863,0.0045662100456621,0.0,0.0045662100456621,0.0136986301369863,0.0,0.0684931506849315,0.0045662100456621,0.0,0.0,0.0,0.0,0.0593607305936073,0.0,0.0639269406392694,0.0,0.0,0.0,0.0,0.0547945205479452,0.0,0.0776255707762557,0.0228310502283105,0.0502283105022831,0.0547945205479452,0.0,0.0,0.0867579908675799,0.0045662100456621,0.0182648401826484,0.0867579908675799,0.0045662100456621,0.0,0.0,0.0,0.0,0.045662100456621,0.0684931506849315,0.0,0.0410958904109589,0.0,0.0273972602739726,0.0228310502283105,0.0,0.0182648401826484,0.0228310502283105,0.0182648401826484,0.0
S11_D13 hbo,0.028735632183908046,0.040229885057471264,0.0,0.034482758620689655,0.0,0.028735632183908046,0.040229885057471264,0.0,0.0,0.028735632183908046,0.022988505747126436,0.0,0.0,0.017241379310344827,0.0,0.0,0.0,0.0,0.04597701149425287,0.0,0.0,0.0,0.0,0.011494252873563218,0.0,0.0,0.0,0.040229885057471264,0.040229885057471264,0.0,0.0,0.08045977011494253,0.06896551724137931,0.08045977011494253,0.017241379310344827,0.10344827586206896,0.06896551724137931,0.0,0.040229885057471264,0.06896551724137931,0.04597701149425287,0.040229885057471264,0.0,0.0,0.0,0.0,0.0,0.0,0.0,0.0,0.005747126436781609,0.0
S12_D10 hbo,0.020761245674740483,0.08304498269896193,0.0,0.02768166089965398,0.0,0.0726643598615917,0.03806228373702422,0.0,0.0,0.020761245674740483,0.02768166089965398,0.0,0.0,0.0,0.0,0.0,0.0,0.0,0.02422145328719723,0.0,0.0,0.0,0.0,0.031141868512110725,0.0,0.0,0.0,0.0,0.0,0.0,0.0,0.03460207612456748,0.04844290657439446,0.08996539792387544,0.0,0.03460207612456748,0.1903114186851211,0.010380622837370242,0.10380622837370242,0.06228373702422145,0.04152249134948097,0.0,0.0,0.0,0.0,0.0,0.0034602076124567475,0.0,0.0,0.0,0.020761245674740483,0.01384083044982699
S12_D12 hbo,0.01744186046511628,0.01744186046511628,0.0,0.0,0.0,0.023255813953488372,0.0,0.011627906976744186,0.0,0.0,0.0,0.0,0.040697674418604654,0.03488372093023256,0.03488372093023256,0.040697674418604654,0.029069767441860465,0.0,0.0,0.040697674418604654,0.01744186046511628,0.03488372093023256,0.0,0.0,0.005813953488372093,0.06395348837209303,0.03488372093023256,0.023255813953488372,0.029069767441860465,0.0,0.0,0.023255813953488372,0.0,0.005813953488372093,0.0,0.0,0.01744186046511628,0.10465116279069768,0.005813953488372093,0.0,0.0,0.040697674418604654,0.029069767441860465,0.10465116279069768,0.040697674418604654,0.05813953488372093,0.040697674418604654,0.0,0.0,0.011627906976744186,0.01744186046511628,0.0
S12_D14 hbo,0.02631578947368421,0.06578947368421052,0.0,0.03070175438596491,0.0,0.05263157894736842,0.04824561403508772,0.0,0.0,0.02631578947368421,0.02631578947368421,0.0,0.0,0.0,0.0,0.0,0.0,0.0,0.02631578947368421,0.0,0.0,0.0,0.0,0.021929824561403508,0.0,0.0,0.0,0.0,0.0,0.0,0.0,0.043859649122807015,0.06140350877192982,0.06578947368421052,0.0,0.039473684210526314,0.14035087719298245,0.0,0.13596491228070176,0.04824561403508772,0.05263157894736842,0.0,0.0,0.0,0.0,0.0,0.017543859649122806,0.0,0.0,0.0,0.039473684210526314,0.03070175438596491
S13_D6 hbo,0.028901734104046242,0.06358381502890173,0.0,0.017341040462427744,0.017341040462427744,0.05202312138728324,0.023121387283236993,0.0,0.017341040462427744,0.011560693641618497,0.005780346820809248,0.017341040462427744,0.0,0.0,0.0,0.0,0.0,0.0,0.05202312138728324,0.0,0.0,0.0,0.0,0.057803468208092484,0.0,0.0,0.0,0.0,0.0,0.0,0.0,0.04046242774566474,0.06358381502890173,0.12138728323699421,0.0,0.05202312138728324,0.10982658959537572,0.005780346820809248,0.06358381502890173,0.10982658959537572,0.06358381502890173,0.0,0.0,0.0,0.0,0.0,0.0,0.0,0.0,0.0,0.005780346820809248,0.0
S13_D11 hbo,0.01929260450160772,0.022508038585209004,0.01929260450160772,0.01607717041800643,0.02572347266881029,0.028938906752411574,0.022508038585209004,0.003215434083601286,0.028938906752411574,0.01607717041800643,0.03536977491961415,0.02572347266881029,0.01929260450160772,0.0,0.0,0.0,0.028938906752411574,0.0,0.06109324758842444,0.0,0.0,0.0,0.0,0.04180064308681672,0.0,0.03215434083601286,0.02572347266881029,0.01929260450160772,0.01929260450160772,0.0,0.0,0.05466237942122187,0.04501607717041801,0.06430868167202572,0.02572347266881029,0.028938906752411574,0.03858520900321544,0.0,0.03215434083601286,0.04180064308681672,0.09967845659163987,0.03215434083601286,0.0,0.006430868167202572,0.0,0.0,0.0,0.0,0.0,0.0,0.012861736334405145,0.006430868167202572
S13_D13 hbo,0.021621621621621623,0.0,0.024324324324324326,0.0,0.013513513513513514,0.024324324324324326,0.0,0.021621621621621623,0.013513513513513514,0.0,0.05945945945945946,0.008108108108108109,0.04054054054054054,0.008108108108108109,0.0,0.0,0.062162162162162166,0.0,0.043243243243243246,0.03513513513513514,0.0,0.0,0.0,0.03783783783783784,0.010810810810810811,0.03513513513513514,0.013513513513513514,0.043243243243243246,0.06756756756756757,0.0,0.0,0.04864864864864865,0.008108108108108109,0.016216216216216217,0.04054054054054054,0.016216216216216217,0.0,0.01891891891891892,0.0,0.005405405405405406,0.032432432432432434,0.0945945945945946,0.02702702702702703,0.04054054054054054,0.03513513513513514,0.01891891891891892,0.013513513513513514,0.0,0.0,0.0,0.0,0.0
S13_D15 hbo,0.06832298136645963,0.0,0.0,0.0,0.0,0.049689440993788817,0.0,0.055900621118012424,0.006211180124223602,0.0,0.024844720496894408,0.049689440993788817,0.11801242236024845,0.0,0.0,0.0,0.10559006211180125,0.0,0.0,0.07453416149068323,0.0,0.0,0.0,0.0,0.024844720496894408,0.0,0.0,0.0,0.012422360248447204,0.0,0.0,0.0,0.0,0.0,0.0,0.0,0.0,0.018633540372670808,0.0,0.0,0.0,0.049689440993788817,0.11801242236024845,0.024844720496894408,0.09316770186335403,0.062111801242236024,0.043478260869565216,0.0,0.0,0.0,0.0,0.0
S14_D12 hbo,0.012698412698412698,0.0,0.015873015873015872,0.0,0.0,0.006349206349206349,0.0,0.009523809523809525,0.0,0.0,0.015873015873015872,0.0,0.03492063492063492,0.01904761904761905,0.01904761904761905,0.022222222222222223,0.03492063492063492,0.0,0.015873015873015872,0.02857142857142857,0.009523809523809525,0.01904761904761905,0.0,0.015873015873015872,0.006349206349206349,0.06031746031746032,0.044444444444444446,0.044444444444444446,0.044444444444444446,0.0,0.0,0.047619047619047616,0.0,0.0,0.022222222222222223,0.0,0.0,0.05396825396825397,0.0,0.0,0.012698412698412698,0.05396825396825397,0.01904761904761905,0.11428571428571428,0.044444444444444446,0.06031746031746032,0.03492063492063492,0.01904761904761905,0.006349206349206349,0.015873015873015872,0.015873015873015872,0.0
S14_D13 hbo,0.05365853658536585,0.0,0.0,0.0,0.0,0.03902439024390244,0.0,0.04390243902439024,0.0,0.0,0.01951219512195122,0.02926829268292683,0.09268292682926829,0.0,0.0,0.004878048780487805,0.08292682926829269,0.0,0.0,0.07317073170731707,0.0,0.0,0.0,0.0,0.01951219512195122,0.0,0.03414634146341464,0.03414634146341464,0.024390243902439025,0.0,0.0,0.0,0.0,0.0,0.0,0.0,0.0,0.02926829268292683,0.0,0.0,0.0,0.05365853658536585,0.08292682926829269,0.04878048780487805,0.11707317073170732,0.04878048780487805,0.03414634146341464,0.03414634146341464,0.0,0.0,0.0,0.0
S14_D14 hbo,0.03765690376569038,0.0,0.0,0.0,0.0,0.03347280334728033,0.0,0.03347280334728033,0.0,0.0,0.016736401673640166,0.012552301255230125,0.04184100418410042,0.008368200836820083,0.008368200836820083,0.012552301255230125,0.04184100418410042,0.0,0.0,0.03765690376569038,0.0,0.008368200836820083,0.0,0.0,0.016736401673640166,0.058577405857740586,0.012552301255230125,0.008368200836820083,0.0,0.0,0.0,0.058577405857740586,0.0,0.0,0.02510460251046025,0.0,0.0,0.02510460251046025,0.0,0.0,0.0,0.02092050209205021,0.04184100418410042,0.07112970711297072,0.0502092050209205,0.11715481171548117,0.08786610878661087,0.012552301255230125,0.02510460251046025,0.03765690376569038,0.03765690376569038,0.0
S14_D16 hbo,0.03211009174311927,0.0,0.0,0.009174311926605505,0.0,0.027522935779816515,0.009174311926605505,0.027522935779816515,0.0,0.0045871559633027525,0.01834862385321101,0.009174311926605505,0.03211009174311927,0.0045871559633027525,0.0045871559633027525,0.009174311926605505,0.03211009174311927,0.0,0.0,0.03211009174311927,0.0,0.0045871559633027525,0.0,0.0,0.009174311926605505,0.05963302752293578,0.0045871559633027525,0.0,0.0,0.0,0.0,0.05504587155963303,0.01834862385321101,0.0045871559633027525,0.027522935779816515,0.0,0.013761467889908258,0.022935779816513763,0.027522935779816515,0.0,0.0045871559633027525,0.013761467889908258,0.03211009174311927,0.045871559633027525,0.03211009174311927,0.0963302752293578,0.11009174311926606,0.0,0.027522935779816515,0.04128440366972477,0.06880733944954129,0.027522935779816515
S15_D13 hbo,0.0,0.0,0.0,0.0,0.0,0.0,0.0,0.0,0.0,0.0,0.0,0.0,0.0,0.013513513513513514,0.0,0.06756756756756757,0.0,0.0,0.0,0.0,0.08108108108108109,0.0,0.0,0.0,0.06756756756756757,0.05405405405405406,0.17567567567567569,0.10810810810810811,0.0,0.0,0.0,0.0,0.0,0.0,0.0,0.0,0.0,0.0,0.0,0.0,0.0,0.0,0.0,0.05405405405405406,0.0945945945945946,0.013513513513513514,0.0,0.24324324324324326,0.0,0.02702702702702703,0.0,0.0
S15_D15 hbo,0.040983606557377046,0.0,0.0,0.05737704918032787,0.0,0.0,0.040983606557377046,0.0,0.040983606557377046,0.06557377049180328,0.0,0.0,0.0,0.040983606557377046,0.0,0.0,0.0,0.0,0.0,0.0,0.0,0.0,0.0,0.0,0.0,0.04918032786885246,0.0,0.0,0.0,0.0,0.0,0.04918032786885246,0.05737704918032787,0.0,0.04918032786885246,0.0,0.0,0.0,0.0,0.0,0.0,0.0,0.0,0.02459016393442623,0.0,0.04918032786885246,0.04918032786885246,0.0,0.13934426229508196,0.04918032786885246,0.11475409836065574,0.08196721311475409
S15_D16 hbo,0.0,0.0,0.0,0.0,0.0,0.0,0.0,0.0,0.0,0.0,0.0,0.0,0.0,0.0,0.0,0.0,0.0,0.0,0.0,0.0,0.014084507042253521,0.0,0.014084507042253521,0.0,0.028169014084507043,0.11267605633802817,0.0,0.0,0.0,0.0,0.0,0.1267605633802817,0.0,0.0,0.08450704225352113,0.0,0.0,0.0,0.0,0.0,0.0,0.0,0.0,0.07042253521126761,0.0,0.1267605633802817,0.11267605633802817,0.0,0.08450704225352113,0.1267605633802817,0.09859154929577464,0.0
S16_D14 hbo,0.031496062992125984,0.0,0.0,0.047244094488188976,0.0,0.011811023622047244,0.06299212598425197,0.0,0.04330708661417323,0.04330708661417323,0.0,0.0,0.0,0.003937007874015748,0.0,0.0,0.0,0.0,0.0,0.0,0.0,0.0,0.0,0.0,0.0,0.03543307086614173,0.0,0.0,0.0,0.0,0.0,0.05511811023622047,0.05511811023622047,0.023622047244094488,0.023622047244094488,0.011811023622047244,0.031496062992125984,0.003937007874015748,0.04330708661417323,0.011811023622047244,0.023622047244094488,0.0,0.0,0.01968503937007874,0.0,0.03543307086614173,0.05511811023622047,0.0,0.051181102362204724,0.03543307086614173,0.16535433070866143,0.07480314960629922
S16_D16 hbo,0.04430379746835443,0.0,0.0,0.0759493670886076,0.0,0.006329113924050633,0.08860759493670886,0.0,0.06329113924050633,0.06962025316455696,0.0,0.0,0.0,0.0189873417721519,0.0,0.0,0.0,0.0,0.0,0.0,0.0,0.0,0.0,0.0,0.0,0.0,0.0,0.0,0.0,0.0,0.0,0.0189873417721519,0.08860759493670886,0.02531645569620253,0.0,0.006329113924050633,0.0379746835443038,0.0,0.056962025316455694,0.006329113924050633,0.02531645569620253,0.0,0.0,0.0,0.0,0.0,0.03164556962025317,0.0,0.056962025316455694,0.0,0.14556962025316456,0.13291139240506328
