,S1_D1 hbo,S1_D3 hbo,S2_D1 hbo,S2_D2 hbo,S2_D4 hbo,S3_D1 hbo,S3_D3 hbo,S3_D4 hbo,S3_D5 hbo,S4_D2 hbo,S4_D4 hbo,S4_D6 hbo,S4_D11 hbo,S5_D3 hbo,S5_D5 hbo,S5_D7 hbo,S6_D4 hbo,S6_D5 hbo,S6_D6 hbo,S6_D8 hbo,S7_D5 hbo,S7_D7 hbo,S7_D8 hbo,S8_D6 hbo,S8_D8 hbo,S8_D15 hbo,S9_D2 hbo,S9_D9 hbo,S9_D11 hbo,S10_D9 hbo,S10_D10 hbo,S10_D12 hbo,S11_D9 hbo,S11_D11 hbo,S11_D12 hbo,S11_D13 hbo,S12_D10 hbo,S12_D12 hbo,S12_D14 hbo,S13_D6 hbo,S13_D11 hbo,S13_D13 hbo,S13_D15 hbo,S14_D12 hbo,S14_D13 hbo,S14_D14 hbo,S14_D16 hbo,S15_D13 hbo,S15_D15 hbo,S15_D16 hbo,S16_D14 hbo,S16_D16 hbo
S1_D1 hbo,0.04230769230769231,0.0,0.023076923076923078,0.019230769230769232,0.026923076923076925,0.03461538461538462,0.019230769230769232,0.0,0.03461538461538462,0.015384615384615385,0.0,0.023076923076923078,0.03076923076923077,0.0,0.03461538461538462,0.0,0.0,0.038461538461538464,0.0,0.0,0.03076923076923077,0.0,0.03461538461538462,0.046153846153846156,0.046153846153846156,0.04230769230769231,0.0,0.0,0.03461538461538462,0.0,0.0,0.0,0.0,0.0,0.0,0.0,0.0,0.0,0.046153846153846156,0.03461538461538462,0.038461538461538464,0.0,0.03461538461538462,0.0,0.04230769230769231,0.038461538461538464,0.03461538461538462,0.0,0.03461538461538462,0.038461538461538464,0.03461538461538462,0.046153846153846156
S1_D3 hbo,0.0,0.0,0.0,0.0,0.0,0.0,0.0,0.0,0.0,0.0,0.0,0.0,0.0,0.0,0.0,0.0,0.0,0.0,0.0,0.0,0.0,0.0,0.0,0.0,0.0,0.0,0.0,0.0,0.0,0.0,0.0,0.0,0.0,0.0,0.0,0.0,0.0,0.0,0.0,0.0,0.0,0.0,0.0,0.0,0.0,0.0,0.0,0.0,0.0,0.0,0.0,0.0
S2_D1 hbo,0.03870967741935484,0.0,0.03225806451612903,0.01935483870967742,0.025806451612903226,0.03870967741935484,0.01935483870967742,0.0,0.03870967741935484,0.0064516129032258064,0.0,0.01935483870967742,0.03225806451612903,0.0,0.03870967741935484,0.0,0.0,0.03870967741935484,0.0,0.0,0.03225806451612903,0.0,0.03870967741935484,0.03870967741935484,0.03870967741935484,0.03870967741935484,0.0,0.0,0.03870967741935484,0.0,0.0,0.0,0.0,0.0,0.0,0.0,0.0,0.0,0.03870967741935484,0.03870967741935484,0.03870967741935484,0.0,0.03870967741935484,0.0,0.03870967741935484,0.03870967741935484,0.03870967741935484,0.0,0.03870967741935484,0.03870967741935484,0.03870967741935484,0.03870967741935484
S2_D2 hbo,0.03597122302158273,0.0,0.03597122302158273,0.02877697841726619,0.03597122302158273,0.03597122302158273,0.02877697841726619,0.0,0.03597122302158273,0.014388489208633094,0.0,0.02877697841726619,0.03597122302158273,0.0,0.03597122302158273,0.0,0.0,0.03597122302158273,0.0,0.0,0.03597122302158273,0.0,0.03597122302158273,0.03597122302158273,0.03597122302158273,0.03597122302158273,0.0,0.0,0.03597122302158273,0.0,0.0,0.0,0.0,0.0,0.0,0.0,0.0,0.0,0.03597122302158273,0.03597122302158273,0.03597122302158273,0.0,0.03597122302158273,0.0,0.03597122302158273,0.03597122302158273,0.03597122302158273,0.0,0.03597122302158273,0.03597122302158273,0.03597122302158273,0.03597122302158273
S2_D4 hbo,0.03664921465968586,0.0,0.031413612565445025,0.02617801047120419,0.031413612565445025,0.03664921465968586,0.02617801047120419,0.0,0.03664921465968586,0.015706806282722512,0.0,0.02617801047120419,0.03664921465968586,0.0,0.03664921465968586,0.0,0.0,0.03664921465968586,0.0,0.0,0.03664921465968586,0.0,0.03664921465968586,0.03664921465968586,0.03664921465968586,0.03664921465968586,0.0,0.0,0.03664921465968586,0.0,0.0,0.0,0.0,0.0,0.0,0.0,0.0,0.0,0.03664921465968586,0.03664921465968586,0.03664921465968586,0.0,0.03664921465968586,0.0,0.03664921465968586,0.03664921465968586,0.03664921465968586,0.0,0.03664921465968586,0.03664921465968586,0.03664921465968586,0.03664921465968586
S3_D1 hbo,0.040293040293040296,0.0,0.02197802197802198,0.018315018315018316,0.02564102564102564,0.03663003663003663,0.018315018315018316,0.0,0.03663003663003663,0.014652014652014652,0.0,0.02564102564102564,0.03296703296703297,0.0,0.03663003663003663,0.0,0.0,0.040293040293040296,0.0,0.0,0.03296703296703297,0.0,0.03663003663003663,0.040293040293040296,0.040293040293040296,0.040293040293040296,0.0,0.0,0.03663003663003663,0.0,0.0,0.0,0.0,0.0,0.0,0.0,0.0,0.0,0.040293040293040296,0.03663003663003663,0.040293040293040296,0.0,0.03663003663003663,0.0,0.040293040293040296,0.040293040293040296,0.03663003663003663,0.0,0.03663003663003663,0.040293040293040296,0.03663003663003663,0.040293040293040296
S3_D3 hbo,0.03597122302158273,0.0,0.03597122302158273,0.02877697841726619,0.03597122302158273,0.03597122302158273,0.02877697841726619,0.0,0.03597122302158273,0.014388489208633094,0.0,0.02877697841726619,0.03597122302158273,0.0,0.03597122302158273,0.0,0.0,0.03597122302158273,0.0,0.0,0.03597122302158273,0.0,0.03597122302158273,0.03597122302158273,0.03597122302158273,0.03597122302158273,0.0,0.0,0.03597122302158273,0.0,0.0,0.0,0.0,0.0,0.0,0.0,0.0,0.0,0.03597122302158273,0.03597122302158273,0.03597122302158273,0.0,0.03597122302158273,0.0,0.03597122302158273,0.03597122302158273,0.03597122302158273,0.0,0.03597122302158273,0.03597122302158273,0.03597122302158273,0.03597122302158273
S3_D4 hbo,0.0,0.0,0.0,0.0,0.0,0.0,0.0,0.0,0.0,0.0,0.0,0.0,0.0,0.0,0.0,0.0,0.0,0.0,0.0,0.0,0.0,0.0,0.0,0.0,0.0,0.0,0.0,0.0,0.0,0.0,0.0,0.0,0.0,0.0,0.0,0.0,0.0,0.0,0.0,0.0,0.0,0.0,0.0,0.0,0.0,0.0,0.0,0.0,0.0,0.0,0.0,0.0
S3_D5 hbo,0.03754266211604096,0.0,0.020477815699658702,0.017064846416382253,0.023890784982935155,0.03754266211604096,0.017064846416382253,0.0,0.03754266211604096,0.013651877133105802,0.0,0.023890784982935155,0.034129692832764506,0.0,0.034129692832764506,0.0,0.0,0.040955631399317405,0.0,0.0,0.034129692832764506,0.0,0.03754266211604096,0.040955631399317405,0.040955631399317405,0.040955631399317405,0.0,0.0,0.03754266211604096,0.0,0.0,0.0,0.0,0.0,0.0,0.0,0.0,0.0,0.040955631399317405,0.03754266211604096,0.040955631399317405,0.0,0.03754266211604096,0.0,0.040955631399317405,0.040955631399317405,0.034129692832764506,0.0,0.03754266211604096,0.040955631399317405,0.03754266211604096,0.040955631399317405
S4_D2 hbo,0.03508771929824561,0.0,0.02631578947368421,0.03508771929824561,0.03508771929824561,0.03508771929824561,0.03508771929824561,0.0,0.03508771929824561,0.02631578947368421,0.0,0.03508771929824561,0.03508771929824561,0.0,0.03508771929824561,0.0,0.0,0.03508771929824561,0.0,0.0,0.03508771929824561,0.0,0.03508771929824561,0.03508771929824561,0.03508771929824561,0.03508771929824561,0.0,0.0,0.03508771929824561,0.0,0.0,0.0,0.0,0.0,0.0,0.0,0.0,0.0,0.03508771929824561,0.03508771929824561,0.03508771929824561,0.0,0.03508771929824561,0.0,0.03508771929824561,0.03508771929824561,0.03508771929824561,0.0,0.03508771929824561,0.03508771929824561,0.03508771929824561,0.03508771929824561
S4_D4 hbo,0.0,0.0,0.0,0.0,0.0,0.0,0.0,0.0,0.0,0.0,0.0,0.0,0.0,0.0,0.0,0.0,0.0,0.0,0.0,0.0,0.0,0.0,0.0,0.0,0.0,0.0,0.0,0.0,0.0,0.0,0.0,0.0,0.0,0.0,0.0,0.0,0.0,0.0,0.0,0.0,0.0,0.0,0.0,0.0,0.0,0.0,0.0,0.0,0.0,0.0,0.0,0.0
S4_D6 hbo,0.03626943005181347,0.0,0.025906735751295335,0.025906735751295335,0.03626943005181347,0.03626943005181347,0.025906735751295335,0.0,0.03626943005181347,0.02072538860103627,0.0,0.031088082901554404,0.03626943005181347,0.0,0.03626943005181347,0.0,0.0,0.03626943005181347,0.0,0.0,0.03626943005181347,0.0,0.03626943005181347,0.03626943005181347,0.03626943005181347,0.03626943005181347,0.0,0.0,0.03626943005181347,0.0,0.0,0.0,0.0,0.0,0.0,0.0,0.0,0.0,0.03626943005181347,0.03626943005181347,0.03626943005181347,0.0,0.03626943005181347,0.0,0.03626943005181347,0.03626943005181347,0.03626943005181347,0.0,0.03626943005181347,0.03626943005181347,0.03626943005181347,0.03626943005181347
S4_D11 hbo,0.03389830508474576,0.0,0.020338983050847456,0.01694915254237288,0.023728813559322035,0.03728813559322034,0.01694915254237288,0.0,0.04067796610169491,0.013559322033898305,0.0,0.023728813559322035,0.03728813559322034,0.0,0.03389830508474576,0.0,0.0,0.04067796610169491,0.0,0.0,0.03389830508474576,0.0,0.03728813559322034,0.04067796610169491,0.04067796610169491,0.04067796610169491,0.0,0.0,0.04067796610169491,0.0,0.0,0.0,0.0,0.0,0.0,0.0,0.0,0.0,0.04067796610169491,0.04067796610169491,0.04067796610169491,0.0,0.03728813559322034,0.0,0.04067796610169491,0.03728813559322034,0.03389830508474576,0.0,0.03728813559322034,0.04067796610169491,0.03728813559322034,0.04067796610169491
S5_D3 hbo,0.0,0.0,0.0,0.0,0.0,0.0,0.0,0.0,0.0,0.0,0.0,0.0,0.0,0.0,0.0,0.0,0.0,0.0,0.0,0.0,0.0,0.0,0.0,0.0,0.0,0.0,0.0,0.0,0.0,0.0,0.0,0.0,0.0,0.0,0.0,0.0,0.0,0.0,0.0,0.0,0.0,0.0,0.0,0.0,0.0,0.0,0.0,0.0,0.0,0.0,0.0,0.0
S5_D5 hbo,0.040160642570281124,0.0,0.024096385542168676,0.020080321285140562,0.028112449799196786,0.03614457831325301,0.020080321285140562,0.0,0.03614457831325301,0.01606425702811245,0.0,0.024096385542168676,0.0321285140562249,0.0,0.03614457831325301,0.0,0.0,0.040160642570281124,0.0,0.0,0.0321285140562249,0.0,0.03614457831325301,0.040160642570281124,0.040160642570281124,0.040160642570281124,0.0,0.0,0.03614457831325301,0.0,0.0,0.0,0.0,0.0,0.0,0.0,0.0,0.0,0.040160642570281124,0.03614457831325301,0.040160642570281124,0.0,0.03614457831325301,0.0,0.040160642570281124,0.040160642570281124,0.03614457831325301,0.0,0.03614457831325301,0.040160642570281124,0.03614457831325301,0.040160642570281124
S5_D7 hbo,0.0,0.0,0.0,0.0,0.0,0.0,0.0,0.0,0.0,0.0,0.0,0.0,0.0,0.0,0.0,0.0,0.0,0.0,0.0,0.0,0.0,0.0,0.0,0.0,0.0,0.0,0.0,0.0,0.0,0.0,0.0,0.0,0.0,0.0,0.0,0.0,0.0,0.0,0.0,0.0,0.0,0.0,0.0,0.0,0.0,0.0,0.0,0.0,0.0,0.0,0.0,0.0
S6_D4 hbo,0.0,0.0,0.0,0.0,0.0,0.0,0.0,0.0,0.0,0.0,0.0,0.0,0.0,0.0,0.0,0.0,0.0,0.0,0.0,0.0,0.0,0.0,0.0,0.0,0.0,0.0,0.0,0.0,0.0,0.0,0.0,0.0,0.0,0.0,0.0,0.0,0.0,0.0,0.0,0.0,0.0,0.0,0.0,0.0,0.0,0.0,0.0,0.0,0.0,0.0,0.0,0.0
S6_D5 hbo,0.04,0.0,0.02,0.016666666666666666,0.023333333333333334,0.03666666666666667,0.016666666666666666,0.0,0.03666666666666667,0.013333333333333334,0.0,0.023333333333333334,0.03333333333333333,0.0,0.03333333333333333,0.0,0.0,0.04,0.0,0.0,0.03333333333333333,0.0,0.03666666666666667,0.043333333333333335,0.043333333333333335,0.043333333333333335,0.0,0.0,0.03666666666666667,0.0,0.0,0.0,0.0,0.0,0.0,0.0,0.0,0.0,0.043333333333333335,0.03666666666666667,0.04,0.0,0.03666666666666667,0.0,0.043333333333333335,0.04,0.03333333333333333,0.0,0.03666666666666667,0.04,0.03666666666666667,0.043333333333333335
S6_D6 hbo,0.0,0.0,0.0,0.0,0.0,0.0,0.0,0.0,0.0,0.0,0.0,0.0,0.0,0.0,0.0,0.0,0.0,0.0,0.0,0.0,0.0,0.0,0.0,0.0,0.0,0.0,0.0,0.0,0.0,0.0,0.0,0.0,0.0,0.0,0.0,0.0,0.0,0.0,0.0,0.0,0.0,0.0,0.0,0.0,0.0,0.0,0.0,0.0,0.0,0.0,0.0,0.0
S6_D8 hbo,0.0,0.0,0.0,0.0,0.0,0.0,0.0,0.0,0.0,0.0,0.0,0.0,0.0,0.0,0.0,0.0,0.0,0.0,0.0,0.0,0.0,0.0,0.0,0.0,0.0,0.0,0.0,0.0,0.0,0.0,0.0,0.0,0.0,0.0,0.0,0.0,0.0,0.0,0.0,0.0,0.0,0.0,0.0,0.0,0.0,0.0,0.0,0.0,0.0,0.0,0.0,0.0
S7_D5 hbo,0.03816793893129771,0.0,0.022900763358778626,0.019083969465648856,0.026717557251908396,0.03816793893129771,0.019083969465648856,0.0,0.03816793893129771,0.015267175572519083,0.0,0.026717557251908396,0.03435114503816794,0.0,0.03816793893129771,0.0,0.0,0.03816793893129771,0.0,0.0,0.03435114503816794,0.0,0.03816793893129771,0.03816793893129771,0.03816793893129771,0.03816793893129771,0.0,0.0,0.03816793893129771,0.0,0.0,0.0,0.0,0.0,0.0,0.0,0.0,0.0,0.03816793893129771,0.03816793893129771,0.03816793893129771,0.0,0.03816793893129771,0.0,0.03816793893129771,0.03816793893129771,0.03816793893129771,0.0,0.03816793893129771,0.03816793893129771,0.03816793893129771,0.03816793893129771
S7_D7 hbo,0.0,0.0,0.0,0.0,0.0,0.0,0.0,0.0,0.0,0.0,0.0,0.0,0.0,0.0,0.0,0.0,0.0,0.0,0.0,0.0,0.0,0.0,0.0,0.0,0.0,0.0,0.0,0.0,0.0,0.0,0.0,0.0,0.0,0.0,0.0,0.0,0.0,0.0,0.0,0.0,0.0,0.0,0.0,0.0,0.0,0.0,0.0,0.0,0.0,0.0,0.0,0.0
S7_D8 hbo,0.040293040293040296,0.0,0.02197802197802198,0.018315018315018316,0.02564102564102564,0.03663003663003663,0.018315018315018316,0.0,0.03663003663003663,0.014652014652014652,0.0,0.02564102564102564,0.03296703296703297,0.0,0.03663003663003663,0.0,0.0,0.040293040293040296,0.0,0.0,0.03296703296703297,0.0,0.03663003663003663,0.040293040293040296,0.040293040293040296,0.040293040293040296,0.0,0.0,0.03663003663003663,0.0,0.0,0.0,0.0,0.0,0.0,0.0,0.0,0.0,0.040293040293040296,0.03663003663003663,0.040293040293040296,0.0,0.03663003663003663,0.0,0.040293040293040296,0.040293040293040296,0.03663003663003663,0.0,0.03663003663003663,0.040293040293040296,0.03663003663003663,0.040293040293040296
S8_D6 hbo,0.03669724770642202,0.0,0.01834862385321101,0.01529051987767584,0.021406727828746176,0.03363914373088685,0.01529051987767584,0.0,0.03669724770642202,0.012232415902140673,0.0,0.021406727828746176,0.03669724770642202,0.0,0.03058103975535168,0.0,0.0,0.039755351681957186,0.0,0.0,0.03058103975535168,0.0,0.03363914373088685,0.04892966360856269,0.04892966360856269,0.045871559633027525,0.0,0.0,0.039755351681957186,0.0,0.0,0.0,0.0,0.0,0.0,0.0,0.0,0.0,0.05198776758409786,0.03669724770642202,0.04281345565749235,0.0,0.03363914373088685,0.0,0.045871559633027525,0.03669724770642202,0.03058103975535168,0.0,0.03363914373088685,0.039755351681957186,0.03363914373088685,0.04892966360856269
S8_D8 hbo,0.03669724770642202,0.0,0.01834862385321101,0.01529051987767584,0.021406727828746176,0.03363914373088685,0.01529051987767584,0.0,0.03669724770642202,0.012232415902140673,0.0,0.021406727828746176,0.03669724770642202,0.0,0.03058103975535168,0.0,0.0,0.039755351681957186,0.0,0.0,0.03058103975535168,0.0,0.03363914373088685,0.04892966360856269,0.04892966360856269,0.045871559633027525,0.0,0.0,0.039755351681957186,0.0,0.0,0.0,0.0,0.0,0.0,0.0,0.0,0.0,0.05198776758409786,0.03669724770642202,0.04281345565749235,0.0,0.03363914373088685,0.0,0.045871559633027525,0.03669724770642202,0.03058103975535168,0.0,0.03363914373088685,0.039755351681957186,0.03363914373088685,0.04892966360856269
S8_D15 hbo,0.03785488958990536,0.0,0.01892744479495268,0.015772870662460567,0.022082018927444796,0.03470031545741325,0.015772870662460567,0.0,0.03785488958990536,0.012618296529968454,0.0,0.022082018927444796,0.03470031545741325,0.0,0.031545741324921134,0.0,0.0,0.04100946372239748,0.0,0.0,0.031545741324921134,0.0,0.03470031545741325,0.0473186119873817,0.0473186119873817,0.04416403785488959,0.0,0.0,0.03785488958990536,0.0,0.0,0.0,0.0,0.0,0.0,0.0,0.0,0.0,0.0473186119873817,0.03785488958990536,0.04100946372239748,0.0,0.03470031545741325,0.0,0.04416403785488959,0.03785488958990536,0.031545741324921134,0.0,0.03470031545741325,0.04100946372239748,0.03470031545741325,0.0473186119873817
S9_D2 hbo,0.0,0.0,0.0,0.0,0.0,0.0,0.0,0.0,0.0,0.0,0.0,0.0,0.0,0.0,0.0,0.0,0.0,0.0,0.0,0.0,0.0,0.0,0.0,0.0,0.0,0.0,0.0,0.0,0.0,0.0,0.0,0.0,0.0,0.0,0.0,0.0,0.0,0.0,0.0,0.0,0.0,0.0,0.0,0.0,0.0,0.0,0.0,0.0,0.0,0.0,0.0,0.0
S9_D9 hbo,0.0,0.0,0.0,0.0,0.0,0.0,0.0,0.0,0.0,0.0,0.0,0.0,0.0,0.0,0.0,0.0,0.0,0.0,0.0,0.0,0.0,0.0,0.0,0.0,0.0,0.0,0.0,0.0,0.0,0.0,0.0,0.0,0.0,0.0,0.0,0.0,0.0,0.0,0.0,0.0,0.0,0.0,0.0,0.0,0.0,0.0,0.0,0.0,0.0,0.0,0.0,0.0
S9_D11 hbo,0.03492063492063492,0.0,0.01904761904761905,0.015873015873015872,0.022222222222222223,0.03492063492063492,0.015873015873015872,0.0,0.0380952380952381,0.012698412698412698,0.0,0.022222222222222223,0.0380952380952381,0.0,0.031746031746031744,0.0,0.0,0.04126984126984127,0.0,0.0,0.031746031746031744,0.0,0.03492063492063492,0.044444444444444446,0.044444444444444446,0.044444444444444446,0.0,0.0,0.04126984126984127,0.0,0.0,0.0,0.0,0.0,0.0,0.0,0.0,0.0,0.044444444444444446,0.0380952380952381,0.044444444444444446,0.0,0.03492063492063492,0.0,0.044444444444444446,0.0380952380952381,0.031746031746031744,0.0,0.03492063492063492,0.04126984126984127,0.03492063492063492,0.044444444444444446
S10_D9 hbo,0.0,0.0,0.0,0.0,0.0,0.0,0.0,0.0,0.0,0.0,0.0,0.0,0.0,0.0,0.0,0.0,0.0,0.0,0.0,0.0,0.0,0.0,0.0,0.0,0.0,0.0,0.0,0.0,0.0,0.0,0.0,0.0,0.0,0.0,0.0,0.0,0.0,0.0,0.0,0.0,0.0,0.0,0.0,0.0,0.0,0.0,0.0,0.0,0.0,0.0,0.0,0.0
S10_D10 hbo,0.0,0.0,0.0,0.0,0.0,0.0,0.0,0.0,0.0,0.0,0.0,0.0,0.0,0.0,0.0,0.0,0.0,0.0,0.0,0.0,0.0,0.0,0.0,0.0,0.0,0.0,0.0,0.0,0.0,0.0,0.0,0.0,0.0,0.0,0.0,0.0,0.0,0.0,0.0,0.0,0.0,0.0,0.0,0.0,0.0,0.0,0.0,0.0,0.0,0.0,0.0,0.0
S10_D12 hbo,0.0,0.0,0.0,0.0,0.0,0.0,0.0,0.0,0.0,0.0,0.0,0.0,0.0,0.0,0.0,0.0,0.0,0.0,0.0,0.0,0.0,0.0,0.0,0.0,0.0,0.0,0.0,0.0,0.0,0.0,0.0,0.0,0.0,0.0,0.0,0.0,0.0,0.0,0.0,0.0,0.0,0.0,0.0,0.0,0.0,0.0,0.0,0.0,0.0,0.0,0.0,0.0
S11_D9 hbo,0.0,0.0,0.0,0.0,0.0,0.0,0.0,0.0,0.0,0.0,0.0,0.0,0.0,0.0,0.0,0.0,0.0,0.0,0.0,0.0,0.0,0.0,0.0,0.0,0.0,0.0,0.0,0.0,0.0,0.0,0.0,0.0,0.0,0.0,0.0,0.0,0.0,0.0,0.0,0.0,0.0,0.0,0.0,0.0,0.0,0.0,0.0,0.0,0.0,0.0,0.0,0.0
S11_D11 hbo,0.0,0.0,0.0,0.0,0.0,0.0,0.0,0.0,0.0,0.0,0.0,0.0,0.0,0.0,0.0,0.0,0.0,0.0,0.0,0.0,0.0,0.0,0.0,0.0,0.0,0.0,0.0,0.0,0.0,0.0,0.0,0.0,0.0,0.0,0.0,0.0,0.0,0.0,0.0,0.0,0.0,0.0,0.0,0.0,0.0,0.0,0.0,0.0,0.0,0.0,0.0,0.0
S11_D12 hbo,0.0,0.0,0.0,0.0,0.0,0.0,0.0,0.0,0.0,0.0,0.0,0.0,0.0,0.0,0.0,0.0,0.0,0.0,0.0,0.0,0.0,0.0,0.0,0.0,0.0,0.0,0.0,0.0,0.0,0.0,0.0,0.0,0.0,0.0,0.0,0.0,0.0,0.0,0.0,0.0,0.0,0.0,0.0,0.0,0.0,0.0,0.0,0.0,0.0,0.0,0.0,0.0
S11_D13 hbo,0.0,0.0,0.0,0.0,0.0,0.0,0.0,0.0,0.0,0.0,0.0,0.0,0.0,0.0,0.0,0.0,0.0,0.0,0.0,0.0,0.0,0.0,0.0,0.0,0.0,0.0,0.0,0.0,0.0,0.0,0.0,0.0,0.0,0.0,0.0,0.0,0.0,0.0,0.0,0.0,0.0,0.0,0.0,0.0,0.0,0.0,0.0,0.0,0.0,0.0,0.0,0.0
S12_D10 hbo,0.0,0.0,0.0,0.0,0.0,0.0,0.0,0.0,0.0,0.0,0.0,0.0,0.0,0.0,0.0,0.0,0.0,0.0,0.0,0.0,0.0,0.0,0.0,0.0,0.0,0.0,0.0,0.0,0.0,0.0,0.0,0.0,0.0,0.0,0.0,0.0,0.0,0.0,0.0,0.0,0.0,0.0,0.0,0.0,0.0,0.0,0.0,0.0,0.0,0.0,0.0,0.0
S12_D12 hbo,0.0,0.0,0.0,0.0,0.0,0.0,0.0,0.0,0.0,0.0,0.0,0.0,0.0,0.0,0.0,0.0,0.0,0.0,0.0,0.0,0.0,0.0,0.0,0.0,0.0,0.0,0.0,0.0,0.0,0.0,0.0,0.0,0.0,0.0,0.0,0.0,0.0,0.0,0.0,0.0,0.0,0.0,0.0,0.0,0.0,0.0,0.0,0.0,0.0,0.0,0.0,0.0
S12_D14 hbo,0.03773584905660377,0.0,0.018867924528301886,0.015723270440251572,0.0220125786163522,0.03459119496855346,0.015723270440251572,0.0,0.03773584905660377,0.012578616352201259,0.0,0.0220125786163522,0.03459119496855346,0.0,0.031446540880503145,0.0,0.0,0.040880503144654086,0.0,0.0,0.031446540880503145,0.0,0.03459119496855346,0.04716981132075472,0.04716981132075472,0.0440251572327044,0.0,0.0,0.03773584905660377,0.0,0.0,0.0,0.0,0.0,0.0,0.0,0.0,0.0,0.050314465408805034,0.03773584905660377,0.040880503144654086,0.0,0.03459119496855346,0.0,0.0440251572327044,0.03773584905660377,0.031446540880503145,0.0,0.03459119496855346,0.040880503144654086,0.03459119496855346,0.04716981132075472
S13_D6 hbo,0.03754266211604096,0.0,0.020477815699658702,0.017064846416382253,0.023890784982935155,0.03754266211604096,0.017064846416382253,0.0,0.03754266211604096,0.013651877133105802,0.0,0.023890784982935155,0.034129692832764506,0.0,0.034129692832764506,0.0,0.0,0.040955631399317405,0.0,0.0,0.034129692832764506,0.0,0.03754266211604096,0.040955631399317405,0.040955631399317405,0.040955631399317405,0.0,0.0,0.03754266211604096,0.0,0.0,0.0,0.0,0.0,0.0,0.0,0.0,0.0,0.040955631399317405,0.03754266211604096,0.040955631399317405,0.0,0.03754266211604096,0.0,0.040955631399317405,0.040955631399317405,0.034129692832764506,0.0,0.03754266211604096,0.040955631399317405,0.03754266211604096,0.040955631399317405
S13_D11 hbo,0.038338658146964855,0.0,0.019169329073482427,0.01597444089456869,0.022364217252396165,0.03514376996805112,0.01597444089456869,0.0,0.038338658146964855,0.012779552715654952,0.0,0.022364217252396165,0.03514376996805112,0.0,0.03194888178913738,0.0,0.0,0.04153354632587859,0.0,0.0,0.03194888178913738,0.0,0.03514376996805112,0.04472843450479233,0.04472843450479233,0.04472843450479233,0.0,0.0,0.038338658146964855,0.0,0.0,0.0,0.0,0.0,0.0,0.0,0.0,0.0,0.04472843450479233,0.038338658146964855,0.04153354632587859,0.0,0.03514376996805112,0.0,0.04472843450479233,0.038338658146964855,0.03194888178913738,0.0,0.03514376996805112,0.04153354632587859,0.03514376996805112,0.04472843450479233
S13_D13 hbo,0.0,0.0,0.0,0.0,0.0,0.0,0.0,0.0,0.0,0.0,0.0,0.0,0.0,0.0,0.0,0.0,0.0,0.0,0.0,0.0,0.0,0.0,0.0,0.0,0.0,0.0,0.0,0.0,0.0,0.0,0.0,0.0,0.0,0.0,0.0,0.0,0.0,0.0,0.0,0.0,0.0,0.0,0.0,0.0,0.0,0.0,0.0,0.0,0.0,0.0,0.0,0.0
S13_D15 hbo,0.040293040293040296,0.0,0.02197802197802198,0.018315018315018316,0.02564102564102564,0.03663003663003663,0.018315018315018316,0.0,0.03663003663003663,0.014652014652014652,0.0,0.02564102564102564,0.03296703296703297,0.0,0.03663003663003663,0.0,0.0,0.040293040293040296,0.0,0.0,0.03296703296703297,0.0,0.03663003663003663,0.040293040293040296,0.040293040293040296,0.040293040293040296,0.0,0.0,0.03663003663003663,0.0,0.0,0.0,0.0,0.0,0.0,0.0,0.0,0.0,0.040293040293040296,0.03663003663003663,0.040293040293040296,0.0,0.03663003663003663,0.0,0.040293040293040296,0.040293040293040296,0.03663003663003663,0.0,0.03663003663003663,0.040293040293040296,0.03663003663003663,0.040293040293040296
S14_D12 hbo,0.0,0.0,0.0,0.0,0.0,0.0,0.0,0.0,0.0,0.0,0.0,0.0,0.0,0.0,0.0,0.0,0.0,0.0,0.0,0.0,0.0,0.0,0.0,0.0,0.0,0.0,0.0,0.0,0.0,0.0,0.0,0.0,0.0,0.0,0.0,0.0,0.0,0.0,0.0,0.0,0.0,0.0,0.0,0.0,0.0,0.0,0.0,0.0,0.0,0.0,0.0,0.0
S14_D13 hbo,0.03680981595092025,0.0,0.018404907975460124,0.015337423312883436,0.02147239263803681,0.03374233128834356,0.015337423312883436,0.0,0.03680981595092025,0.012269938650306749,0.0,0.02147239263803681,0.03680981595092025,0.0,0.03067484662576687,0.0,0.0,0.03987730061349693,0.0,0.0,0.03067484662576687,0.0,0.03374233128834356,0.049079754601226995,0.049079754601226995,0.046012269938650305,0.0,0.0,0.03987730061349693,0.0,0.0,0.0,0.0,0.0,0.0,0.0,0.0,0.0,0.049079754601226995,0.03680981595092025,0.04294478527607362,0.0,0.03374233128834356,0.0,0.046012269938650305,0.03680981595092025,0.03067484662576687,0.0,0.03374233128834356,0.03987730061349693,0.03374233128834356,0.049079754601226995
S14_D14 hbo,0.04285714285714286,0.0,0.02142857142857143,0.017857142857142856,0.025,0.03571428571428571,0.017857142857142856,0.0,0.03571428571428571,0.014285714285714285,0.0,0.025,0.03214285714285714,0.0,0.03571428571428571,0.0,0.0,0.039285714285714285,0.0,0.0,0.03214285714285714,0.0,0.03571428571428571,0.04285714285714286,0.04285714285714286,0.04285714285714286,0.0,0.0,0.03571428571428571,0.0,0.0,0.0,0.0,0.0,0.0,0.0,0.0,0.0,0.04285714285714286,0.03571428571428571,0.039285714285714285,0.0,0.03571428571428571,0.0,0.04285714285714286,0.039285714285714285,0.03571428571428571,0.0,0.03571428571428571,0.039285714285714285,0.03571428571428571,0.04285714285714286
S14_D16 hbo,0.040160642570281124,0.0,0.024096385542168676,0.020080321285140562,0.028112449799196786,0.03614457831325301,0.020080321285140562,0.0,0.03614457831325301,0.01606425702811245,0.0,0.024096385542168676,0.0321285140562249,0.0,0.03614457831325301,0.0,0.0,0.040160642570281124,0.0,0.0,0.0321285140562249,0.0,0.03614457831325301,0.040160642570281124,0.040160642570281124,0.040160642570281124,0.0,0.0,0.03614457831325301,0.0,0.0,0.0,0.0,0.0,0.0,0.0,0.0,0.0,0.040160642570281124,0.03614457831325301,0.040160642570281124,0.0,0.03614457831325301,0.0,0.040160642570281124,0.040160642570281124,0.03614457831325301,0.0,0.03614457831325301,0.040160642570281124,0.03614457831325301,0.040160642570281124
S15_D13 hbo,0.0,0.0,0.0,0.0,0.0,0.0,0.0,0.0,0.0,0.0,0.0,0.0,0.0,0.0,0.0,0.0,0.0,0.0,0.0,0.0,0.0,0.0,0.0,0.0,0.0,0.0,0.0,0.0,0.0,0.0,0.0,0.0,0.0,0.0,0.0,0.0,0.0,0.0,0.0,0.0,0.0,0.0,0.0,0.0,0.0,0.0,0.0,0.0,0.0,0.0,0.0,0.0
S15_D15 hbo,0.040293040293040296,0.0,0.02197802197802198,0.018315018315018316,0.02564102564102564,0.03663003663003663,0.018315018315018316,0.0,0.03663003663003663,0.014652014652014652,0.0,0.02564102564102564,0.03296703296703297,0.0,0.03663003663003663,0.0,0.0,0.040293040293040296,0.0,0.0,0.03296703296703297,0.0,0.03663003663003663,0.040293040293040296,0.040293040293040296,0.040293040293040296,0.0,0.0,0.03663003663003663,0.0,0.0,0.0,0.0,0.0,0.0,0.0,0.0,0.0,0.040293040293040296,0.03663003663003663,0.040293040293040296,0.0,0.03663003663003663,0.0,0.040293040293040296,0.040293040293040296,0.03663003663003663,0.0,0.03663003663003663,0.040293040293040296,0.03663003663003663,0.040293040293040296
S15_D16 hbo,0.04,0.0,0.02,0.016666666666666666,0.023333333333333334,0.03666666666666667,0.016666666666666666,0.0,0.03666666666666667,0.013333333333333334,0.0,0.023333333333333334,0.03333333333333333,0.0,0.03333333333333333,0.0,0.0,0.04,0.0,0.0,0.03333333333333333,0.0,0.03666666666666667,0.043333333333333335,0.043333333333333335,0.043333333333333335,0.0,0.0,0.03666666666666667,0.0,0.0,0.0,0.0,0.0,0.0,0.0,0.0,0.0,0.043333333333333335,0.03666666666666667,0.04,0.0,0.03666666666666667,0.0,0.043333333333333335,0.04,0.03333333333333333,0.0,0.03666666666666667,0.04,0.03666666666666667,0.043333333333333335
S16_D14 hbo,0.040293040293040296,0.0,0.02197802197802198,0.018315018315018316,0.02564102564102564,0.03663003663003663,0.018315018315018316,0.0,0.03663003663003663,0.014652014652014652,0.0,0.02564102564102564,0.03296703296703297,0.0,0.03663003663003663,0.0,0.0,0.040293040293040296,0.0,0.0,0.03296703296703297,0.0,0.03663003663003663,0.040293040293040296,0.040293040293040296,0.040293040293040296,0.0,0.0,0.03663003663003663,0.0,0.0,0.0,0.0,0.0,0.0,0.0,0.0,0.0,0.040293040293040296,0.03663003663003663,0.040293040293040296,0.0,0.03663003663003663,0.0,0.040293040293040296,0.040293040293040296,0.03663003663003663,0.0,0.03663003663003663,0.040293040293040296,0.03663003663003663,0.040293040293040296
S16_D16 hbo,0.03773584905660377,0.0,0.018867924528301886,0.015723270440251572,0.0220125786163522,0.03459119496855346,0.015723270440251572,0.0,0.03773584905660377,0.012578616352201259,0.0,0.0220125786163522,0.03459119496855346,0.0,0.031446540880503145,0.0,0.0,0.040880503144654086,0.0,0.0,0.031446540880503145,0.0,0.03459119496855346,0.04716981132075472,0.04716981132075472,0.0440251572327044,0.0,0.0,0.03773584905660377,0.0,0.0,0.0,0.0,0.0,0.0,0.0,0.0,0.0,0.050314465408805034,0.03773584905660377,0.040880503144654086,0.0,0.03459119496855346,0.0,0.0440251572327044,0.03773584905660377,0.031446540880503145,0.0,0.03459119496855346,0.040880503144654086,0.03459119496855346,0.04716981132075472
