,S1_D1 hbo,S1_D3 hbo,S2_D1 hbo,S2_D2 hbo,S2_D4 hbo,S3_D1 hbo,S3_D3 hbo,S3_D4 hbo,S3_D5 hbo,S4_D2 hbo,S4_D4 hbo,S4_D6 hbo,S4_D11 hbo,S5_D3 hbo,S5_D5 hbo,S5_D7 hbo,S6_D4 hbo,S6_D5 hbo,S6_D6 hbo,S6_D8 hbo,S7_D5 hbo,S7_D7 hbo,S7_D8 hbo,S8_D6 hbo,S8_D8 hbo,S8_D15 hbo,S9_D2 hbo,S9_D9 hbo,S9_D11 hbo,S10_D9 hbo,S10_D10 hbo,S10_D12 hbo,S11_D9 hbo,S11_D11 hbo,S11_D12 hbo,S11_D13 hbo,S12_D10 hbo,S12_D12 hbo,S12_D14 hbo,S13_D6 hbo,S13_D11 hbo,S13_D13 hbo,S13_D15 hbo,S14_D12 hbo,S14_D13 hbo,S14_D14 hbo,S14_D16 hbo,S15_D13 hbo,S15_D15 hbo,S15_D16 hbo,S16_D14 hbo,S16_D16 hbo
S1_D1 hbo,0.0,0.0,0.0,0.0,0.0,0.0,0.0,0.0,0.0,0.0,0.0,0.0,0.0,0.0,0.0,0.0,0.0,0.0,0.0,0.0,0.0,0.0,0.0,0.0,0.0,0.0,0.0,0.0,0.0,0.0,0.0,0.0,0.0,0.0,0.0,0.0,0.0,0.0,0.0,0.0,0.0,0.0,0.0,0.0,0.0,0.0,0.0,0.0,0.0,0.0,0.0,0.0
S1_D3 hbo,0.0,0.0,0.0,0.0,0.0,0.0,0.0,0.0,0.0,0.0,0.0,0.0,0.0,0.0,0.0,0.0,0.0,0.0,0.0,0.0,0.0,0.0,0.0,0.0,0.0,0.0,0.0,0.0,0.0,0.0,0.0,0.0,0.0,0.0,0.0,0.0,0.0,0.0,0.0,0.0,0.0,0.0,0.0,0.0,0.0,0.0,0.0,0.0,0.0,0.0,0.0,0.0
S2_D1 hbo,0.0,0.0,0.0,0.0,0.0,0.0,0.0,0.0,0.0,0.0,0.0,0.0,0.0,0.0,0.0,0.0,0.0,0.0,0.0,0.0,0.0,0.0,0.0,0.0,0.0,0.0,0.0,0.0,0.0,0.0,0.0,0.0,0.0,0.0,0.0,0.0,0.0,0.0,0.0,0.0,0.0,0.0,0.0,0.0,0.0,0.0,0.0,0.0,0.0,0.0,0.0,0.0
S2_D2 hbo,0.0,0.0,0.0,0.0,0.0,0.0,0.0,0.0,0.0,0.0,0.0,0.0,0.0,0.0,0.0,0.0,0.0,0.0,0.0,0.0,0.0,0.0,0.0,0.0,0.0,0.0,0.0,0.0,0.0,0.0,0.0,0.0,0.0,0.0,0.0,0.0,0.0,0.0,0.0,0.0,0.0,0.0,0.0,0.0,0.0,0.0,0.0,0.0,0.0,0.0,0.0,0.0
S2_D4 hbo,0.0,0.0,0.0,0.0,0.0,0.0,0.0,0.0,0.0,0.0,0.0,0.0,0.0,0.0,0.0,0.0,0.0,0.0,0.0,0.0,0.0,0.0,0.0,0.0,0.0,0.0,0.0,0.0,0.0,0.0,0.0,0.0,0.0,0.0,0.0,0.0,0.0,0.0,0.0,0.0,0.0,0.0,0.0,0.0,0.0,0.0,0.0,0.0,0.0,0.0,0.0,0.0
S3_D1 hbo,0.0,0.0,0.0,0.0,0.0,0.0,0.0,0.0,0.0,0.0,0.0,0.0,0.0,0.0,0.0,0.0,0.0,0.0,0.0,0.0,0.0,0.0,0.0,0.0,0.0,0.0,0.0,0.0,0.0,0.0,0.0,0.0,0.0,0.0,0.0,0.0,0.0,0.0,0.0,0.0,0.0,0.0,0.0,0.0,0.0,0.0,0.0,0.0,0.0,0.0,0.0,0.0
S3_D3 hbo,0.0,0.0,0.0,0.0,0.0,0.0,0.052941176470588235,0.058823529411764705,0.058823529411764705,0.0,0.0,0.0,0.0,0.029411764705882353,0.058823529411764705,0.047058823529411764,0.0,0.058823529411764705,0.0,0.0,0.052941176470588235,0.029411764705882353,0.052941176470588235,0.0,0.058823529411764705,0.0,0.058823529411764705,0.0,0.0,0.0,0.0,0.03529411764705882,0.058823529411764705,0.0,0.0,0.0,0.0,0.0,0.0,0.0,0.041176470588235294,0.0,0.0,0.058823529411764705,0.058823529411764705,0.0,0.0,0.0,0.0,0.047058823529411764,0.029411764705882353,0.052941176470588235
S3_D4 hbo,0.0,0.0,0.0,0.0,0.0,0.0,0.03571428571428571,0.07142857142857142,0.06785714285714285,0.0,0.0,0.0,0.0,0.03214285714285714,0.05357142857142857,0.04285714285714286,0.0,0.06785714285714285,0.0,0.0,0.04642857142857143,0.017857142857142856,0.05714285714285714,0.0,0.060714285714285714,0.0,0.06428571428571428,0.0,0.0,0.0,0.0,0.04642857142857143,0.060714285714285714,0.0,0.0,0.0,0.0,0.0,0.0,0.0,0.05,0.0,0.0,0.039285714285714285,0.05357142857142857,0.0,0.0,0.0,0.0,0.05357142857142857,0.02142857142857143,0.05714285714285714
S3_D5 hbo,0.0,0.0,0.0,0.0,0.0,0.0,0.03597122302158273,0.07553956834532374,0.07553956834532374,0.0,0.0,0.0,0.0,0.03597122302158273,0.06115107913669065,0.04316546762589928,0.0,0.0683453237410072,0.0,0.0,0.046762589928057555,0.017985611510791366,0.0539568345323741,0.0,0.05755395683453238,0.0,0.06115107913669065,0.0,0.0,0.0,0.0,0.04316546762589928,0.05755395683453238,0.0,0.0,0.0,0.0,0.0,0.0,0.0,0.046762589928057555,0.0,0.0,0.039568345323741004,0.0539568345323741,0.0,0.0,0.0,0.0,0.050359712230215826,0.02158273381294964,0.0539568345323741
S4_D2 hbo,0.0,0.0,0.0,0.0,0.0,0.0,0.0,0.0,0.0,0.0,0.0,0.0,0.0,0.0,0.0,0.0,0.0,0.0,0.0,0.0,0.0,0.0,0.0,0.0,0.0,0.0,0.0,0.0,0.0,0.0,0.0,0.0,0.0,0.0,0.0,0.0,0.0,0.0,0.0,0.0,0.0,0.0,0.0,0.0,0.0,0.0,0.0,0.0,0.0,0.0,0.0,0.0
S4_D4 hbo,0.0,0.0,0.0,0.0,0.0,0.0,0.0,0.0,0.0,0.0,0.0,0.0,0.0,0.0,0.0,0.0,0.0,0.0,0.0,0.0,0.0,0.0,0.0,0.0,0.0,0.0,0.0,0.0,0.0,0.0,0.0,0.0,0.0,0.0,0.0,0.0,0.0,0.0,0.0,0.0,0.0,0.0,0.0,0.0,0.0,0.0,0.0,0.0,0.0,0.0,0.0,0.0
S4_D6 hbo,0.0,0.0,0.0,0.0,0.0,0.0,0.0,0.0,0.0,0.0,0.0,0.0,0.0,0.0,0.0,0.0,0.0,0.0,0.0,0.0,0.0,0.0,0.0,0.0,0.0,0.0,0.0,0.0,0.0,0.0,0.0,0.0,0.0,0.0,0.0,0.0,0.0,0.0,0.0,0.0,0.0,0.0,0.0,0.0,0.0,0.0,0.0,0.0,0.0,0.0,0.0,0.0
S4_D11 hbo,0.0,0.0,0.0,0.0,0.0,0.0,0.0,0.0,0.0,0.0,0.0,0.0,0.0,0.0,0.0,0.0,0.0,0.0,0.0,0.0,0.0,0.0,0.0,0.0,0.0,0.0,0.0,0.0,0.0,0.0,0.0,0.0,0.0,0.0,0.0,0.0,0.0,0.0,0.0,0.0,0.0,0.0,0.0,0.0,0.0,0.0,0.0,0.0,0.0,0.0,0.0,0.0
S5_D3 hbo,0.0,0.0,0.0,0.0,0.0,0.0,0.05426356589147287,0.07751937984496124,0.07751937984496124,0.0,0.0,0.0,0.0,0.06976744186046512,0.07751937984496124,0.07751937984496124,0.0,0.06976744186046512,0.0,0.0,0.07751937984496124,0.023255813953488372,0.03875968992248062,0.0,0.046511627906976744,0.0,0.05426356589147287,0.0,0.0,0.0,0.0,0.015503875968992248,0.046511627906976744,0.0,0.0,0.0,0.0,0.0,0.0,0.0,0.023255813953488372,0.0,0.0,0.046511627906976744,0.046511627906976744,0.0,0.0,0.0,0.0,0.031007751937984496,0.007751937984496124,0.03875968992248062
S5_D5 hbo,0.0,0.0,0.0,0.0,0.0,0.0,0.04310344827586207,0.07327586206896551,0.07758620689655173,0.0,0.0,0.0,0.0,0.04310344827586207,0.07327586206896551,0.05172413793103448,0.0,0.06465517241379311,0.0,0.0,0.05603448275862069,0.021551724137931036,0.04741379310344827,0.0,0.05172413793103448,0.0,0.05603448275862069,0.0,0.0,0.0,0.0,0.034482758620689655,0.05172413793103448,0.0,0.0,0.0,0.0,0.0,0.0,0.0,0.03879310344827586,0.0,0.0,0.04741379310344827,0.05172413793103448,0.0,0.0,0.0,0.0,0.04310344827586207,0.02586206896551724,0.04741379310344827
S5_D7 hbo,0.0,0.0,0.0,0.0,0.0,0.0,0.056179775280898875,0.06741573033707865,0.06741573033707865,0.0,0.0,0.0,0.0,0.0449438202247191,0.06741573033707865,0.06179775280898876,0.0,0.06741573033707865,0.0,0.0,0.06741573033707865,0.028089887640449437,0.0449438202247191,0.0,0.05056179775280899,0.0,0.056179775280898875,0.0,0.0,0.0,0.0,0.028089887640449437,0.05056179775280899,0.0,0.0,0.0,0.0,0.0,0.0,0.0,0.033707865168539325,0.0,0.0,0.05056179775280899,0.05056179775280899,0.0,0.0,0.0,0.0,0.03932584269662921,0.02247191011235955,0.0449438202247191
S6_D4 hbo,0.0,0.0,0.0,0.0,0.0,0.0,0.0,0.0,0.0,0.0,0.0,0.0,0.0,0.0,0.0,0.0,0.0,0.0,0.0,0.0,0.0,0.0,0.0,0.0,0.0,0.0,0.0,0.0,0.0,0.0,0.0,0.0,0.0,0.0,0.0,0.0,0.0,0.0,0.0,0.0,0.0,0.0,0.0,0.0,0.0,0.0,0.0,0.0,0.0,0.0,0.0,0.0
S6_D5 hbo,0.0,0.0,0.0,0.0,0.0,0.0,0.03745318352059925,0.06741573033707865,0.06367041198501873,0.0,0.0,0.0,0.0,0.026217228464419477,0.04868913857677903,0.03745318352059925,0.0,0.06741573033707865,0.0,0.0,0.04119850187265917,0.018726591760299626,0.0599250936329588,0.0,0.06367041198501873,0.0,0.06741573033707865,0.0,0.0,0.0,0.0,0.04868913857677903,0.06367041198501873,0.0,0.0,0.0,0.0,0.0,0.0,0.0,0.052434456928838954,0.0,0.0,0.04119850187265917,0.056179775280898875,0.0,0.0,0.0,0.0,0.056179775280898875,0.02247191011235955,0.0599250936329588
S6_D6 hbo,0.0,0.0,0.0,0.0,0.0,0.0,0.0,0.0,0.0,0.0,0.0,0.0,0.0,0.0,0.0,0.0,0.0,0.0,0.0,0.0,0.0,0.0,0.0,0.0,0.0,0.0,0.0,0.0,0.0,0.0,0.0,0.0,0.0,0.0,0.0,0.0,0.0,0.0,0.0,0.0,0.0,0.0,0.0,0.0,0.0,0.0,0.0,0.0,0.0,0.0,0.0,0.0
S6_D8 hbo,0.0,0.0,0.0,0.0,0.0,0.0,0.0,0.0,0.0,0.0,0.0,0.0,0.0,0.0,0.0,0.0,0.0,0.0,0.0,0.0,0.0,0.0,0.0,0.0,0.0,0.0,0.0,0.0,0.0,0.0,0.0,0.0,0.0,0.0,0.0,0.0,0.0,0.0,0.0,0.0,0.0,0.0,0.0,0.0,0.0,0.0,0.0,0.0,0.0,0.0,0.0,0.0
S7_D5 hbo,0.0,0.0,0.0,0.0,0.0,0.0,0.05181347150259067,0.06735751295336788,0.06735751295336788,0.0,0.0,0.0,0.0,0.04145077720207254,0.06735751295336788,0.05699481865284974,0.0,0.06735751295336788,0.0,0.0,0.06217616580310881,0.025906735751295335,0.046632124352331605,0.0,0.05181347150259067,0.0,0.05699481865284974,0.0,0.0,0.0,0.0,0.031088082901554404,0.05181347150259067,0.0,0.0,0.0,0.0,0.0,0.0,0.0,0.03626943005181347,0.0,0.0,0.05181347150259067,0.05181347150259067,0.0,0.0,0.0,0.0,0.04145077720207254,0.025906735751295335,0.046632124352331605
S7_D7 hbo,0.0,0.0,0.0,0.0,0.0,0.0,0.053763440860215055,0.053763440860215055,0.053763440860215055,0.0,0.0,0.0,0.0,0.010752688172043012,0.053763440860215055,0.043010752688172046,0.0,0.053763440860215055,0.0,0.0,0.053763440860215055,0.043010752688172046,0.053763440860215055,0.0,0.053763440860215055,0.0,0.053763440860215055,0.0,0.0,0.0,0.0,0.053763440860215055,0.053763440860215055,0.0,0.0,0.0,0.0,0.0,0.0,0.0,0.053763440860215055,0.0,0.0,0.053763440860215055,0.053763440860215055,0.0,0.0,0.0,0.0,0.053763440860215055,0.043010752688172046,0.053763440860215055
S7_D8 hbo,0.0,0.0,0.0,0.0,0.0,0.0,0.030042918454935622,0.060085836909871244,0.055793991416309016,0.0,0.0,0.0,0.0,0.012875536480686695,0.03862660944206009,0.02575107296137339,0.0,0.060085836909871244,0.0,0.0,0.030042918454935622,0.02145922746781116,0.06866952789699571,0.0,0.07296137339055794,0.0,0.06437768240343347,0.0,0.0,0.0,0.0,0.06437768240343347,0.07296137339055794,0.0,0.0,0.0,0.0,0.0,0.0,0.0,0.06437768240343347,0.0,0.0,0.03862660944206009,0.055793991416309016,0.0,0.0,0.0,0.0,0.07296137339055794,0.02575107296137339,0.06437768240343347
S8_D6 hbo,0.0,0.0,0.0,0.0,0.0,0.0,0.0,0.0,0.0,0.0,0.0,0.0,0.0,0.0,0.0,0.0,0.0,0.0,0.0,0.0,0.0,0.0,0.0,0.0,0.0,0.0,0.0,0.0,0.0,0.0,0.0,0.0,0.0,0.0,0.0,0.0,0.0,0.0,0.0,0.0,0.0,0.0,0.0,0.0,0.0,0.0,0.0,0.0,0.0,0.0,0.0,0.0
S8_D8 hbo,0.0,0.0,0.0,0.0,0.0,0.0,0.0321285140562249,0.060240963855421686,0.05622489959839357,0.0,0.0,0.0,0.0,0.01606425702811245,0.040160642570281124,0.028112449799196786,0.0,0.060240963855421686,0.0,0.0,0.0321285140562249,0.020080321285140562,0.06827309236947791,0.0,0.07630522088353414,0.0,0.0642570281124498,0.0,0.0,0.0,0.0,0.060240963855421686,0.07228915662650602,0.0,0.0,0.0,0.0,0.0,0.0,0.0,0.060240963855421686,0.0,0.0,0.040160642570281124,0.05622489959839357,0.0,0.0,0.0,0.0,0.06827309236947791,0.024096385542168676,0.0642570281124498
S8_D15 hbo,0.0,0.0,0.0,0.0,0.0,0.0,0.0,0.0,0.0,0.0,0.0,0.0,0.0,0.0,0.0,0.0,0.0,0.0,0.0,0.0,0.0,0.0,0.0,0.0,0.0,0.0,0.0,0.0,0.0,0.0,0.0,0.0,0.0,0.0,0.0,0.0,0.0,0.0,0.0,0.0,0.0,0.0,0.0,0.0,0.0,0.0,0.0,0.0,0.0,0.0,0.0,0.0
S9_D2 hbo,0.0,0.0,0.0,0.0,0.0,0.0,0.03501945525291829,0.0622568093385214,0.058365758754863814,0.0,0.0,0.0,0.0,0.019455252918287938,0.042801556420233464,0.0311284046692607,0.0,0.0622568093385214,0.0,0.0,0.03501945525291829,0.019455252918287938,0.06614785992217899,0.0,0.07003891050583658,0.0,0.06614785992217899,0.0,0.0,0.0,0.0,0.054474708171206226,0.07003891050583658,0.0,0.0,0.0,0.0,0.0,0.0,0.0,0.058365758754863814,0.0,0.0,0.042801556420233464,0.058365758754863814,0.0,0.0,0.0,0.0,0.0622568093385214,0.023346303501945526,0.0622568093385214
S9_D9 hbo,0.0,0.0,0.0,0.0,0.0,0.0,0.0,0.0,0.0,0.0,0.0,0.0,0.0,0.0,0.0,0.0,0.0,0.0,0.0,0.0,0.0,0.0,0.0,0.0,0.0,0.0,0.0,0.0,0.0,0.0,0.0,0.0,0.0,0.0,0.0,0.0,0.0,0.0,0.0,0.0,0.0,0.0,0.0,0.0,0.0,0.0,0.0,0.0,0.0,0.0,0.0,0.0
S9_D11 hbo,0.0,0.0,0.0,0.0,0.0,0.0,0.0,0.0,0.0,0.0,0.0,0.0,0.0,0.0,0.0,0.0,0.0,0.0,0.0,0.0,0.0,0.0,0.0,0.0,0.0,0.0,0.0,0.0,0.0,0.0,0.0,0.0,0.0,0.0,0.0,0.0,0.0,0.0,0.0,0.0,0.0,0.0,0.0,0.0,0.0,0.0,0.0,0.0,0.0,0.0,0.0,0.0
S10_D9 hbo,0.0,0.0,0.0,0.0,0.0,0.0,0.0,0.0,0.0,0.0,0.0,0.0,0.0,0.0,0.0,0.0,0.0,0.0,0.0,0.0,0.0,0.0,0.0,0.0,0.0,0.0,0.0,0.0,0.0,0.0,0.0,0.0,0.0,0.0,0.0,0.0,0.0,0.0,0.0,0.0,0.0,0.0,0.0,0.0,0.0,0.0,0.0,0.0,0.0,0.0,0.0,0.0
S10_D10 hbo,0.0,0.0,0.0,0.0,0.0,0.0,0.0,0.0,0.0,0.0,0.0,0.0,0.0,0.0,0.0,0.0,0.0,0.0,0.0,0.0,0.0,0.0,0.0,0.0,0.0,0.0,0.0,0.0,0.0,0.0,0.0,0.0,0.0,0.0,0.0,0.0,0.0,0.0,0.0,0.0,0.0,0.0,0.0,0.0,0.0,0.0,0.0,0.0,0.0,0.0,0.0,0.0
S10_D12 hbo,0.0,0.0,0.0,0.0,0.0,0.0,0.022099447513812154,0.06077348066298342,0.055248618784530384,0.0,0.0,0.0,0.0,0.0,0.03314917127071823,0.016574585635359115,0.0,0.06077348066298342,0.0,0.0,0.022099447513812154,0.016574585635359115,0.0718232044198895,0.0,0.08287292817679558,0.0,0.06629834254143646,0.0,0.0,0.0,0.0,0.07734806629834254,0.07734806629834254,0.0,0.0,0.0,0.0,0.0,0.0,0.0,0.0718232044198895,0.0,0.0,0.03314917127071823,0.055248618784530384,0.0,0.0,0.0,0.0,0.07734806629834254,0.03314917127071823,0.06629834254143646
S11_D9 hbo,0.0,0.0,0.0,0.0,0.0,0.0,0.0321285140562249,0.060240963855421686,0.05622489959839357,0.0,0.0,0.0,0.0,0.01606425702811245,0.040160642570281124,0.028112449799196786,0.0,0.060240963855421686,0.0,0.0,0.0321285140562249,0.020080321285140562,0.06827309236947791,0.0,0.07630522088353414,0.0,0.0642570281124498,0.0,0.0,0.0,0.0,0.060240963855421686,0.07228915662650602,0.0,0.0,0.0,0.0,0.0,0.0,0.0,0.060240963855421686,0.0,0.0,0.040160642570281124,0.05622489959839357,0.0,0.0,0.0,0.0,0.06827309236947791,0.024096385542168676,0.0642570281124498
S11_D11 hbo,0.0,0.0,0.0,0.0,0.0,0.0,0.0,0.0,0.0,0.0,0.0,0.0,0.0,0.0,0.0,0.0,0.0,0.0,0.0,0.0,0.0,0.0,0.0,0.0,0.0,0.0,0.0,0.0,0.0,0.0,0.0,0.0,0.0,0.0,0.0,0.0,0.0,0.0,0.0,0.0,0.0,0.0,0.0,0.0,0.0,0.0,0.0,0.0,0.0,0.0,0.0,0.0
S11_D12 hbo,0.0,0.0,0.0,0.0,0.0,0.0,0.0,0.0,0.0,0.0,0.0,0.0,0.0,0.0,0.0,0.0,0.0,0.0,0.0,0.0,0.0,0.0,0.0,0.0,0.0,0.0,0.0,0.0,0.0,0.0,0.0,0.0,0.0,0.0,0.0,0.0,0.0,0.0,0.0,0.0,0.0,0.0,0.0,0.0,0.0,0.0,0.0,0.0,0.0,0.0,0.0,0.0
S11_D13 hbo,0.0,0.0,0.0,0.0,0.0,0.0,0.0,0.0,0.0,0.0,0.0,0.0,0.0,0.0,0.0,0.0,0.0,0.0,0.0,0.0,0.0,0.0,0.0,0.0,0.0,0.0,0.0,0.0,0.0,0.0,0.0,0.0,0.0,0.0,0.0,0.0,0.0,0.0,0.0,0.0,0.0,0.0,0.0,0.0,0.0,0.0,0.0,0.0,0.0,0.0,0.0,0.0
S12_D10 hbo,0.0,0.0,0.0,0.0,0.0,0.0,0.0,0.0,0.0,0.0,0.0,0.0,0.0,0.0,0.0,0.0,0.0,0.0,0.0,0.0,0.0,0.0,0.0,0.0,0.0,0.0,0.0,0.0,0.0,0.0,0.0,0.0,0.0,0.0,0.0,0.0,0.0,0.0,0.0,0.0,0.0,0.0,0.0,0.0,0.0,0.0,0.0,0.0,0.0,0.0,0.0,0.0
S12_D12 hbo,0.0,0.0,0.0,0.0,0.0,0.0,0.0,0.0,0.0,0.0,0.0,0.0,0.0,0.0,0.0,0.0,0.0,0.0,0.0,0.0,0.0,0.0,0.0,0.0,0.0,0.0,0.0,0.0,0.0,0.0,0.0,0.0,0.0,0.0,0.0,0.0,0.0,0.0,0.0,0.0,0.0,0.0,0.0,0.0,0.0,0.0,0.0,0.0,0.0,0.0,0.0,0.0
S12_D14 hbo,0.0,0.0,0.0,0.0,0.0,0.0,0.0,0.0,0.0,0.0,0.0,0.0,0.0,0.0,0.0,0.0,0.0,0.0,0.0,0.0,0.0,0.0,0.0,0.0,0.0,0.0,0.0,0.0,0.0,0.0,0.0,0.0,0.0,0.0,0.0,0.0,0.0,0.0,0.0,0.0,0.0,0.0,0.0,0.0,0.0,0.0,0.0,0.0,0.0,0.0,0.0,0.0
S13_D6 hbo,0.0,0.0,0.0,0.0,0.0,0.0,0.0,0.0,0.0,0.0,0.0,0.0,0.0,0.0,0.0,0.0,0.0,0.0,0.0,0.0,0.0,0.0,0.0,0.0,0.0,0.0,0.0,0.0,0.0,0.0,0.0,0.0,0.0,0.0,0.0,0.0,0.0,0.0,0.0,0.0,0.0,0.0,0.0,0.0,0.0,0.0,0.0,0.0,0.0,0.0,0.0,0.0
S13_D11 hbo,0.0,0.0,0.0,0.0,0.0,0.0,0.02512562814070352,0.06030150753768844,0.05527638190954774,0.0,0.0,0.0,0.0,0.005025125628140704,0.035175879396984924,0.020100502512562814,0.0,0.06030150753768844,0.0,0.0,0.02512562814070352,0.020100502512562814,0.07035175879396985,0.0,0.07537688442211055,0.0,0.06532663316582915,0.0,0.0,0.0,0.0,0.07537688442211055,0.07537688442211055,0.0,0.0,0.0,0.0,0.0,0.0,0.0,0.07035175879396985,0.0,0.0,0.035175879396984924,0.05527638190954774,0.0,0.0,0.0,0.0,0.07537688442211055,0.03015075376884422,0.06532663316582915
S13_D13 hbo,0.0,0.0,0.0,0.0,0.0,0.0,0.0,0.0,0.0,0.0,0.0,0.0,0.0,0.0,0.0,0.0,0.0,0.0,0.0,0.0,0.0,0.0,0.0,0.0,0.0,0.0,0.0,0.0,0.0,0.0,0.0,0.0,0.0,0.0,0.0,0.0,0.0,0.0,0.0,0.0,0.0,0.0,0.0,0.0,0.0,0.0,0.0,0.0,0.0,0.0,0.0,0.0
S13_D15 hbo,0.0,0.0,0.0,0.0,0.0,0.0,0.0,0.0,0.0,0.0,0.0,0.0,0.0,0.0,0.0,0.0,0.0,0.0,0.0,0.0,0.0,0.0,0.0,0.0,0.0,0.0,0.0,0.0,0.0,0.0,0.0,0.0,0.0,0.0,0.0,0.0,0.0,0.0,0.0,0.0,0.0,0.0,0.0,0.0,0.0,0.0,0.0,0.0,0.0,0.0,0.0,0.0
S14_D12 hbo,0.0,0.0,0.0,0.0,0.0,0.0,0.043478260869565216,0.059782608695652176,0.059782608695652176,0.0,0.0,0.0,0.0,0.021739130434782608,0.05434782608695652,0.03804347826086957,0.0,0.059782608695652176,0.0,0.0,0.043478260869565216,0.02717391304347826,0.059782608695652176,0.0,0.059782608695652176,0.0,0.059782608695652176,0.0,0.0,0.0,0.0,0.043478260869565216,0.059782608695652176,0.0,0.0,0.0,0.0,0.0,0.0,0.0,0.04891304347826087,0.0,0.0,0.05434782608695652,0.059782608695652176,0.0,0.0,0.0,0.0,0.05434782608695652,0.03260869565217391,0.059782608695652176
S14_D13 hbo,0.0,0.0,0.0,0.0,0.0,0.0,0.034782608695652174,0.06521739130434782,0.06086956521739131,0.0,0.0,0.0,0.0,0.017391304347826087,0.043478260869565216,0.030434782608695653,0.0,0.06521739130434782,0.0,0.0,0.034782608695652174,0.021739130434782608,0.06521739130434782,0.0,0.06521739130434782,0.0,0.06521739130434782,0.0,0.0,0.0,0.0,0.05217391304347826,0.06521739130434782,0.0,0.0,0.0,0.0,0.0,0.0,0.0,0.05652173913043478,0.0,0.0,0.043478260869565216,0.06086956521739131,0.0,0.0,0.0,0.0,0.06086956521739131,0.02608695652173913,0.06521739130434782
S14_D14 hbo,0.0,0.0,0.0,0.0,0.0,0.0,0.0,0.0,0.0,0.0,0.0,0.0,0.0,0.0,0.0,0.0,0.0,0.0,0.0,0.0,0.0,0.0,0.0,0.0,0.0,0.0,0.0,0.0,0.0,0.0,0.0,0.0,0.0,0.0,0.0,0.0,0.0,0.0,0.0,0.0,0.0,0.0,0.0,0.0,0.0,0.0,0.0,0.0,0.0,0.0,0.0,0.0
S14_D16 hbo,0.0,0.0,0.0,0.0,0.0,0.0,0.0,0.0,0.0,0.0,0.0,0.0,0.0,0.0,0.0,0.0,0.0,0.0,0.0,0.0,0.0,0.0,0.0,0.0,0.0,0.0,0.0,0.0,0.0,0.0,0.0,0.0,0.0,0.0,0.0,0.0,0.0,0.0,0.0,0.0,0.0,0.0,0.0,0.0,0.0,0.0,0.0,0.0,0.0,0.0,0.0,0.0
S15_D13 hbo,0.0,0.0,0.0,0.0,0.0,0.0,0.0,0.0,0.0,0.0,0.0,0.0,0.0,0.0,0.0,0.0,0.0,0.0,0.0,0.0,0.0,0.0,0.0,0.0,0.0,0.0,0.0,0.0,0.0,0.0,0.0,0.0,0.0,0.0,0.0,0.0,0.0,0.0,0.0,0.0,0.0,0.0,0.0,0.0,0.0,0.0,0.0,0.0,0.0,0.0,0.0,0.0
S15_D15 hbo,0.0,0.0,0.0,0.0,0.0,0.0,0.0,0.0,0.0,0.0,0.0,0.0,0.0,0.0,0.0,0.0,0.0,0.0,0.0,0.0,0.0,0.0,0.0,0.0,0.0,0.0,0.0,0.0,0.0,0.0,0.0,0.0,0.0,0.0,0.0,0.0,0.0,0.0,0.0,0.0,0.0,0.0,0.0,0.0,0.0,0.0,0.0,0.0,0.0,0.0,0.0,0.0
S15_D16 hbo,0.0,0.0,0.0,0.0,0.0,0.0,0.027522935779816515,0.05963302752293578,0.05504587155963303,0.0,0.0,0.0,0.0,0.009174311926605505,0.03669724770642202,0.022935779816513763,0.0,0.05963302752293578,0.0,0.0,0.027522935779816515,0.022935779816513763,0.06880733944954129,0.0,0.0779816513761468,0.0,0.06422018348623854,0.0,0.0,0.0,0.0,0.06880733944954129,0.07339449541284404,0.0,0.0,0.0,0.0,0.0,0.0,0.0,0.06880733944954129,0.0,0.0,0.03669724770642202,0.05504587155963303,0.0,0.0,0.0,0.0,0.07339449541284404,0.027522935779816515,0.06422018348623854
S16_D14 hbo,0.0,0.0,0.0,0.0,0.0,0.0,0.030927835051546393,0.061855670103092786,0.061855670103092786,0.0,0.0,0.0,0.0,0.0,0.05154639175257732,0.020618556701030927,0.0,0.061855670103092786,0.0,0.0,0.030927835051546393,0.020618556701030927,0.061855670103092786,0.0,0.061855670103092786,0.0,0.061855670103092786,0.0,0.0,0.0,0.0,0.061855670103092786,0.061855670103092786,0.0,0.0,0.0,0.0,0.0,0.0,0.0,0.061855670103092786,0.0,0.0,0.05154639175257732,0.061855670103092786,0.0,0.0,0.0,0.0,0.061855670103092786,0.05154639175257732,0.061855670103092786
S16_D16 hbo,0.0,0.0,0.0,0.0,0.0,0.0,0.03056768558951965,0.0611353711790393,0.056768558951965066,0.0,0.0,0.0,0.0,0.013100436681222707,0.039301310043668124,0.026200873362445413,0.0,0.0611353711790393,0.0,0.0,0.03056768558951965,0.021834061135371178,0.06986899563318777,0.0,0.06986899563318777,0.0,0.06550218340611354,0.0,0.0,0.0,0.0,0.0611353711790393,0.06986899563318777,0.0,0.0,0.0,0.0,0.0,0.0,0.0,0.06550218340611354,0.0,0.0,0.039301310043668124,0.056768558951965066,0.0,0.0,0.0,0.0,0.06986899563318777,0.026200873362445413,0.06550218340611354
