,S1_D1 hbo,S1_D3 hbo,S2_D1 hbo,S2_D2 hbo,S2_D4 hbo,S3_D1 hbo,S3_D3 hbo,S3_D4 hbo,S3_D5 hbo,S4_D2 hbo,S4_D4 hbo,S4_D6 hbo,S4_D11 hbo,S5_D3 hbo,S5_D5 hbo,S5_D7 hbo,S6_D4 hbo,S6_D5 hbo,S6_D6 hbo,S6_D8 hbo,S7_D5 hbo,S7_D7 hbo,S7_D8 hbo,S8_D6 hbo,S8_D8 hbo,S8_D15 hbo,S9_D2 hbo,S9_D9 hbo,S9_D11 hbo,S10_D9 hbo,S10_D10 hbo,S10_D12 hbo,S11_D9 hbo,S11_D11 hbo,S11_D12 hbo,S11_D13 hbo,S12_D10 hbo,S12_D12 hbo,S12_D14 hbo,S13_D6 hbo,S13_D11 hbo,S13_D13 hbo,S13_D15 hbo,S14_D12 hbo,S14_D13 hbo,S14_D14 hbo,S14_D16 hbo,S15_D13 hbo,S15_D15 hbo,S15_D16 hbo,S16_D14 hbo,S16_D16 hbo
S1_D1 hbo,0.0,0.0,0.0,0.0,0.0,0.0,0.0,0.0,0.0,0.0,0.0,0.0,0.0,0.0,0.0,0.0,0.0,0.0,0.0,0.0,0.0,0.0,0.0,0.0,0.0,0.0,0.0,0.0,0.0,0.0,0.0,0.0,0.0,0.0,0.0,0.0,0.0,0.0,0.0,0.0,0.0,0.0,0.0,0.0,0.0,0.0,0.0,0.0,0.0,0.0,0.0,0.0
S1_D3 hbo,0.0,0.0,0.0,0.0,0.0,0.0,0.0,0.0,0.0,0.0,0.0,0.0,0.0,0.0,0.0,0.0,0.0,0.0,0.0,0.0,0.0,0.0,0.0,0.0,0.0,0.0,0.0,0.0,0.0,0.0,0.0,0.0,0.0,0.0,0.0,0.0,0.0,0.0,0.0,0.0,0.0,0.0,0.0,0.0,0.0,0.0,0.0,0.0,0.0,0.0,0.0,0.0
S2_D1 hbo,0.0,0.0,0.03056768558951965,0.034934497816593885,0.0,0.013100436681222707,0.0,0.0,0.021834061135371178,0.034934497816593885,0.004366812227074236,0.034934497816593885,0.034934497816593885,0.0,0.0,0.0,0.017467248908296942,0.013100436681222707,0.034934497816593885,0.034934497816593885,0.0,0.0,0.0,0.034934497816593885,0.034934497816593885,0.034934497816593885,0.034934497816593885,0.03056768558951965,0.034934497816593885,0.0,0.004366812227074236,0.0,0.034934497816593885,0.034934497816593885,0.021834061135371178,0.026200873362445413,0.0,0.0,0.0,0.034934497816593885,0.034934497816593885,0.034934497816593885,0.034934497816593885,0.0,0.013100436681222707,0.0,0.034934497816593885,0.034934497816593885,0.034934497816593885,0.034934497816593885,0.034934497816593885,0.034934497816593885
S2_D2 hbo,0.0,0.0,0.024475524475524476,0.038461538461538464,0.0,0.01048951048951049,0.0,0.0,0.017482517482517484,0.04195804195804196,0.0034965034965034965,0.03496503496503497,0.04195804195804196,0.0,0.0,0.0,0.013986013986013986,0.01048951048951049,0.027972027972027972,0.03496503496503497,0.0,0.0,0.0,0.04195804195804196,0.03496503496503497,0.04195804195804196,0.04195804195804196,0.024475524475524476,0.04195804195804196,0.0,0.0034965034965034965,0.0,0.03146853146853147,0.03146853146853147,0.017482517482517484,0.02097902097902098,0.0,0.0,0.0,0.038461538461538464,0.03146853146853147,0.03146853146853147,0.03146853146853147,0.0,0.01048951048951049,0.0,0.03146853146853147,0.04195804195804196,0.03496503496503497,0.038461538461538464,0.03496503496503497,0.04195804195804196
S2_D4 hbo,0.0,0.0,0.0,0.0,0.0423728813559322,0.0,0.0,0.0,0.0,0.0,0.00847457627118644,0.0423728813559322,0.0,0.0,0.00847457627118644,0.0,0.05084745762711865,0.0,0.0,0.05084745762711865,0.0,0.05084745762711865,0.05084745762711865,0.05084745762711865,0.05084745762711865,0.05084745762711865,0.0,0.0,0.0,0.0,0.0,0.01694915254237288,0.0,0.00847457627118644,0.05084745762711865,0.05084745762711865,0.05084745762711865,0.05084745762711865,0.03389830508474576,0.05084745762711865,0.0,0.01694915254237288,0.05084745762711865,0.05084745762711865,0.0,0.05084745762711865,0.03389830508474576,0.0,0.00847457627118644,0.0,0.01694915254237288,0.0
S3_D1 hbo,0.0,0.0,0.031496062992125984,0.031496062992125984,0.0,0.023622047244094488,0.0,0.0,0.031496062992125984,0.031496062992125984,0.007874015748031496,0.031496062992125984,0.031496062992125984,0.0,0.0,0.0,0.031496062992125984,0.023622047244094488,0.031496062992125984,0.031496062992125984,0.0,0.0,0.0,0.031496062992125984,0.031496062992125984,0.031496062992125984,0.031496062992125984,0.031496062992125984,0.031496062992125984,0.0,0.007874015748031496,0.0,0.031496062992125984,0.031496062992125984,0.031496062992125984,0.031496062992125984,0.0,0.0,0.0,0.031496062992125984,0.031496062992125984,0.031496062992125984,0.031496062992125984,0.0,0.023622047244094488,0.0,0.031496062992125984,0.031496062992125984,0.031496062992125984,0.031496062992125984,0.031496062992125984,0.031496062992125984
S3_D3 hbo,0.0,0.0,0.0,0.0,0.0,0.0,0.0,0.0,0.0,0.0,0.0,0.0,0.0,0.0,0.0,0.0,0.0,0.0,0.0,0.0,0.0,0.0,0.0,0.0,0.0,0.0,0.0,0.0,0.0,0.0,0.0,0.0,0.0,0.0,0.0,0.0,0.0,0.0,0.0,0.0,0.0,0.0,0.0,0.0,0.0,0.0,0.0,0.0,0.0,0.0,0.0,0.0
S3_D4 hbo,0.0,0.0,0.0,0.0,0.038461538461538464,0.0,0.0,0.0,0.0,0.0,0.038461538461538464,0.038461538461538464,0.0,0.0,0.038461538461538464,0.0,0.038461538461538464,0.0,0.0,0.038461538461538464,0.0,0.038461538461538464,0.038461538461538464,0.038461538461538464,0.038461538461538464,0.038461538461538464,0.0,0.0,0.0,0.0,0.0,0.038461538461538464,0.0,0.038461538461538464,0.038461538461538464,0.038461538461538464,0.038461538461538464,0.038461538461538464,0.038461538461538464,0.038461538461538464,0.0,0.038461538461538464,0.038461538461538464,0.038461538461538464,0.0,0.038461538461538464,0.038461538461538464,0.0,0.038461538461538464,0.0,0.038461538461538464,0.0
S3_D5 hbo,0.0,0.0,0.03314917127071823,0.03314917127071823,0.0,0.016574585635359115,0.0,0.0,0.027624309392265192,0.03314917127071823,0.0055248618784530384,0.03314917127071823,0.03314917127071823,0.0,0.0,0.0,0.022099447513812154,0.016574585635359115,0.03314917127071823,0.03314917127071823,0.0,0.0,0.0,0.03314917127071823,0.03314917127071823,0.03314917127071823,0.03314917127071823,0.03314917127071823,0.03314917127071823,0.0,0.0055248618784530384,0.0,0.03314917127071823,0.03314917127071823,0.027624309392265192,0.03314917127071823,0.0,0.0,0.0,0.03314917127071823,0.03314917127071823,0.03314917127071823,0.03314917127071823,0.0,0.016574585635359115,0.0,0.03314917127071823,0.03314917127071823,0.03314917127071823,0.03314917127071823,0.03314917127071823,0.03314917127071823
S4_D2 hbo,0.0,0.0,0.02356902356902357,0.037037037037037035,0.0,0.010101010101010102,0.0,0.0,0.016835016835016835,0.04713804713804714,0.010101010101010102,0.03367003367003367,0.04713804713804714,0.0,0.0,0.0,0.013468013468013467,0.010101010101010102,0.03367003367003367,0.03367003367003367,0.0,0.0,0.0,0.04040404040404041,0.03367003367003367,0.04713804713804714,0.04040404040404041,0.02356902356902357,0.04040404040404041,0.0,0.003367003367003367,0.0,0.030303030303030304,0.030303030303030304,0.016835016835016835,0.020202020202020204,0.0,0.0,0.0,0.037037037037037035,0.030303030303030304,0.030303030303030304,0.030303030303030304,0.0,0.010101010101010102,0.0,0.030303030303030304,0.04377104377104377,0.03367003367003367,0.037037037037037035,0.03367003367003367,0.04040404040404041
S4_D4 hbo,0.0,0.0,0.011111111111111112,0.011111111111111112,0.011111111111111112,0.011111111111111112,0.0,0.0,0.011111111111111112,0.016666666666666666,0.07222222222222222,0.022222222222222223,0.011111111111111112,0.0,0.005555555555555556,0.0,0.07222222222222222,0.011111111111111112,0.027777777777777776,0.022222222222222223,0.0,0.011111111111111112,0.022222222222222223,0.022222222222222223,0.022222222222222223,0.022222222222222223,0.011111111111111112,0.011111111111111112,0.011111111111111112,0.0,0.005555555555555556,0.011111111111111112,0.011111111111111112,0.016666666666666666,0.044444444444444446,0.03333333333333333,0.022222222222222223,0.022222222222222223,0.011111111111111112,0.022222222222222223,0.011111111111111112,0.022222222222222223,0.022222222222222223,0.07222222222222222,0.05555555555555555,0.011111111111111112,0.07777777777777778,0.011111111111111112,0.016666666666666666,0.016666666666666666,0.022222222222222223,0.011111111111111112
S4_D6 hbo,0.0,0.0,0.016867469879518072,0.02650602409638554,0.012048192771084338,0.007228915662650603,0.0,0.0,0.012048192771084338,0.02650602409638554,0.007228915662650603,0.05301204819277108,0.02650602409638554,0.0,0.0024096385542168677,0.0,0.024096385542168676,0.007228915662650603,0.01927710843373494,0.03855421686746988,0.0,0.014457831325301205,0.016867469879518072,0.04096385542168675,0.03855421686746988,0.04096385542168675,0.02650602409638554,0.016867469879518072,0.02650602409638554,0.0,0.0024096385542168677,0.004819277108433735,0.021686746987951807,0.024096385542168676,0.02650602409638554,0.02891566265060241,0.014457831325301205,0.016867469879518072,0.00963855421686747,0.04096385542168675,0.02650602409638554,0.02650602409638554,0.03614457831325301,0.016867469879518072,0.007228915662650603,0.014457831325301205,0.033734939759036145,0.02650602409638554,0.02650602409638554,0.03855421686746988,0.02891566265060241,0.02650602409638554
S4_D11 hbo,0.0,0.0,0.023972602739726026,0.03767123287671233,0.0,0.010273972602739725,0.0,0.0,0.017123287671232876,0.04452054794520548,0.003424657534246575,0.03424657534246575,0.04794520547945205,0.0,0.0,0.0,0.0136986301369863,0.010273972602739725,0.0273972602739726,0.03424657534246575,0.0,0.0,0.0,0.0410958904109589,0.03424657534246575,0.04794520547945205,0.0410958904109589,0.023972602739726026,0.0410958904109589,0.0,0.003424657534246575,0.0,0.030821917808219176,0.030821917808219176,0.017123287671232876,0.02054794520547945,0.0,0.0,0.0,0.03767123287671233,0.030821917808219176,0.030821917808219176,0.030821917808219176,0.0,0.010273972602739725,0.0,0.030821917808219176,0.04452054794520548,0.03424657534246575,0.03767123287671233,0.03424657534246575,0.0410958904109589
S5_D3 hbo,0.0,0.0,0.0,0.0,0.0,0.0,0.0,0.0,0.0,0.0,0.0,0.0,0.0,0.0,0.0,0.0,0.0,0.0,0.0,0.0,0.0,0.0,0.0,0.0,0.0,0.0,0.0,0.0,0.0,0.0,0.0,0.0,0.0,0.0,0.0,0.0,0.0,0.0,0.0,0.0,0.0,0.0,0.0,0.0,0.0,0.0,0.0,0.0,0.0,0.0,0.0,0.0
S5_D5 hbo,0.0,0.0,0.0,0.0,0.041666666666666664,0.0,0.0,0.0,0.0,0.0,0.020833333333333332,0.041666666666666664,0.0,0.0,0.020833333333333332,0.0,0.041666666666666664,0.0,0.0,0.041666666666666664,0.0,0.041666666666666664,0.041666666666666664,0.041666666666666664,0.041666666666666664,0.041666666666666664,0.0,0.0,0.0,0.0,0.0,0.041666666666666664,0.0,0.020833333333333332,0.041666666666666664,0.041666666666666664,0.041666666666666664,0.041666666666666664,0.041666666666666664,0.041666666666666664,0.0,0.041666666666666664,0.041666666666666664,0.041666666666666664,0.0,0.041666666666666664,0.041666666666666664,0.0,0.020833333333333332,0.0,0.041666666666666664,0.0
S5_D7 hbo,0.0,0.0,0.0,0.0,0.0,0.0,0.0,0.0,0.0,0.0,0.0,0.0,0.0,0.0,0.0,0.0,0.0,0.0,0.0,0.0,0.0,0.0,0.0,0.0,0.0,0.0,0.0,0.0,0.0,0.0,0.0,0.0,0.0,0.0,0.0,0.0,0.0,0.0,0.0,0.0,0.0,0.0,0.0,0.0,0.0,0.0,0.0,0.0,0.0,0.0,0.0,0.0
S6_D4 hbo,0.0,0.0,0.014534883720930232,0.014534883720930232,0.014534883720930232,0.00872093023255814,0.0,0.0,0.014534883720930232,0.014534883720930232,0.029069767441860465,0.029069767441860465,0.014534883720930232,0.0,0.0029069767441860465,0.0,0.06395348837209303,0.00872093023255814,0.014534883720930232,0.03197674418604651,0.0,0.01744186046511628,0.020348837209302327,0.03197674418604651,0.03488372093023256,0.03488372093023256,0.014534883720930232,0.014534883720930232,0.014534883720930232,0.0,0.0029069767441860465,0.005813953488372093,0.014534883720930232,0.01744186046511628,0.046511627906976744,0.040697674418604654,0.02616279069767442,0.023255813953488372,0.011627906976744186,0.03488372093023256,0.014534883720930232,0.020348837209302327,0.03488372093023256,0.055232558139534885,0.03197674418604651,0.020348837209302327,0.05813953488372093,0.014534883720930232,0.01744186046511628,0.014534883720930232,0.020348837209302327,0.014534883720930232
S6_D5 hbo,0.0,0.0,0.031496062992125984,0.031496062992125984,0.0,0.023622047244094488,0.0,0.0,0.031496062992125984,0.031496062992125984,0.007874015748031496,0.031496062992125984,0.031496062992125984,0.0,0.0,0.0,0.031496062992125984,0.023622047244094488,0.031496062992125984,0.031496062992125984,0.0,0.0,0.0,0.031496062992125984,0.031496062992125984,0.031496062992125984,0.031496062992125984,0.031496062992125984,0.031496062992125984,0.0,0.007874015748031496,0.0,0.031496062992125984,0.031496062992125984,0.031496062992125984,0.031496062992125984,0.0,0.0,0.0,0.031496062992125984,0.031496062992125984,0.031496062992125984,0.031496062992125984,0.0,0.023622047244094488,0.0,0.031496062992125984,0.031496062992125984,0.031496062992125984,0.031496062992125984,0.031496062992125984,0.031496062992125984
S6_D6 hbo,0.0,0.0,0.027131782945736434,0.03488372093023256,0.0,0.011627906976744186,0.0,0.0,0.01937984496124031,0.03875968992248062,0.011627906976744186,0.03488372093023256,0.03488372093023256,0.0,0.0,0.0,0.015503875968992248,0.011627906976744186,0.046511627906976744,0.03488372093023256,0.0,0.0,0.0,0.03488372093023256,0.03488372093023256,0.03488372093023256,0.03488372093023256,0.027131782945736434,0.03488372093023256,0.0,0.003875968992248062,0.0,0.03488372093023256,0.03488372093023256,0.01937984496124031,0.023255813953488372,0.0,0.0,0.0,0.03488372093023256,0.03488372093023256,0.03488372093023256,0.03488372093023256,0.0,0.011627906976744186,0.0,0.03488372093023256,0.03488372093023256,0.03488372093023256,0.03488372093023256,0.03488372093023256,0.03488372093023256
S6_D8 hbo,0.0,0.0,0.0171990171990172,0.02702702702702703,0.012285012285012284,0.007371007371007371,0.0,0.0,0.012285012285012284,0.02702702702702703,0.004914004914004914,0.036855036855036855,0.02702702702702703,0.0,0.002457002457002457,0.0,0.02457002457002457,0.007371007371007371,0.019656019656019656,0.03931203931203931,0.0,0.014742014742014743,0.0171990171990172,0.04176904176904177,0.04176904176904177,0.044226044226044224,0.02702702702702703,0.0171990171990172,0.02702702702702703,0.0,0.002457002457002457,0.004914004914004914,0.022113022113022112,0.02457002457002457,0.029484029484029485,0.03194103194103194,0.0171990171990172,0.0171990171990172,0.009828009828009828,0.044226044226044224,0.022113022113022112,0.02702702702702703,0.03931203931203931,0.0171990171990172,0.007371007371007371,0.0171990171990172,0.03194103194103194,0.02702702702702703,0.02702702702702703,0.02702702702702703,0.029484029484029485,0.02702702702702703
S7_D5 hbo,0.0,0.0,0.0,0.0,0.0,0.0,0.0,0.0,0.0,0.0,0.0,0.0,0.0,0.0,0.0,0.0,0.0,0.0,0.0,0.0,0.0,0.0,0.0,0.0,0.0,0.0,0.0,0.0,0.0,0.0,0.0,0.0,0.0,0.0,0.0,0.0,0.0,0.0,0.0,0.0,0.0,0.0,0.0,0.0,0.0,0.0,0.0,0.0,0.0,0.0,0.0,0.0
S7_D7 hbo,0.0,0.0,0.0,0.0,0.03875968992248062,0.0,0.0,0.0,0.0,0.0,0.007751937984496124,0.03875968992248062,0.0,0.0,0.007751937984496124,0.0,0.046511627906976744,0.0,0.0,0.046511627906976744,0.0,0.046511627906976744,0.05426356589147287,0.046511627906976744,0.05426356589147287,0.05426356589147287,0.0,0.0,0.0,0.0,0.0,0.015503875968992248,0.0,0.007751937984496124,0.05426356589147287,0.05426356589147287,0.05426356589147287,0.05426356589147287,0.031007751937984496,0.05426356589147287,0.0,0.015503875968992248,0.05426356589147287,0.05426356589147287,0.0,0.05426356589147287,0.031007751937984496,0.0,0.007751937984496124,0.0,0.015503875968992248,0.0
S7_D8 hbo,0.0,0.0,0.0,0.0,0.028901734104046242,0.0,0.0,0.0,0.0,0.0,0.011560693641618497,0.028901734104046242,0.0,0.0,0.005780346820809248,0.0,0.03468208092485549,0.0,0.0,0.03468208092485549,0.0,0.03468208092485549,0.12716763005780346,0.03468208092485549,0.046242774566473986,0.057803468208092484,0.0,0.0,0.0,0.0,0.0,0.011560693641618497,0.0,0.005780346820809248,0.05202312138728324,0.057803468208092484,0.046242774566473986,0.05202312138728324,0.023121387283236993,0.04046242774566474,0.0,0.011560693641618497,0.06936416184971098,0.06936416184971098,0.0,0.06358381502890173,0.028901734104046242,0.0,0.005780346820809248,0.005780346820809248,0.011560693641618497,0.0
S8_D6 hbo,0.0,0.0,0.016587677725118485,0.026066350710900472,0.011848341232227487,0.0071090047393364926,0.0,0.0,0.011848341232227487,0.030805687203791468,0.004739336492890996,0.035545023696682464,0.030805687203791468,0.0,0.002369668246445498,0.0,0.023696682464454975,0.0071090047393364926,0.018957345971563982,0.037914691943127965,0.0,0.014218009478672985,0.016587677725118485,0.045023696682464455,0.04028436018957346,0.04739336492890995,0.02843601895734597,0.016587677725118485,0.02843601895734597,0.0,0.002369668246445498,0.004739336492890996,0.02132701421800948,0.023696682464454975,0.02843601895734597,0.030805687203791468,0.016587677725118485,0.016587677725118485,0.009478672985781991,0.04265402843601896,0.02132701421800948,0.026066350710900472,0.037914691943127965,0.02132701421800948,0.0071090047393364926,0.016587677725118485,0.030805687203791468,0.030805687203791468,0.026066350710900472,0.026066350710900472,0.02843601895734597,0.02843601895734597
S8_D8 hbo,0.0,0.0,0.016548463356973995,0.026004728132387706,0.01182033096926714,0.0070921985815602835,0.0,0.0,0.01182033096926714,0.026004728132387706,0.004728132387706856,0.03546099290780142,0.026004728132387706,0.0,0.002364066193853428,0.0,0.02364066193853428,0.0070921985815602835,0.018912529550827423,0.037825059101654845,0.0,0.014184397163120567,0.02127659574468085,0.04018912529550828,0.0425531914893617,0.04728132387706856,0.026004728132387706,0.016548463356973995,0.026004728132387706,0.0,0.002364066193853428,0.004728132387706856,0.02127659574468085,0.02364066193853428,0.03309692671394799,0.03546099290780142,0.018912529550827423,0.018912529550827423,0.009456264775413711,0.0425531914893617,0.02127659574468085,0.026004728132387706,0.0425531914893617,0.018912529550827423,0.0070921985815602835,0.02127659574468085,0.030732860520094562,0.026004728132387706,0.026004728132387706,0.026004728132387706,0.028368794326241134,0.026004728132387706
S8_D15 hbo,0.0,0.0,0.015730337078651686,0.024719101123595506,0.011235955056179775,0.006741573033707865,0.0,0.0,0.011235955056179775,0.029213483146067417,0.0044943820224719105,0.033707865168539325,0.03146067415730337,0.0,0.0022471910112359553,0.0,0.02247191011235955,0.006741573033707865,0.017977528089887642,0.035955056179775284,0.0,0.01348314606741573,0.024719101123595506,0.04044943820224719,0.04044943820224719,0.05393258426966292,0.02696629213483146,0.015730337078651686,0.02696629213483146,0.0,0.0022471910112359553,0.0044943820224719105,0.020224719101123594,0.02247191011235955,0.03146067415730337,0.035955056179775284,0.017977528089887642,0.017977528089887642,0.008988764044943821,0.04044943820224719,0.020224719101123594,0.024719101123595506,0.0449438202247191,0.017977528089887642,0.006741573033707865,0.024719101123595506,0.029213483146067417,0.029213483146067417,0.024719101123595506,0.024719101123595506,0.02696629213483146,0.02696629213483146
S9_D2 hbo,0.0,0.0,0.02413793103448276,0.03793103448275862,0.0,0.010344827586206896,0.0,0.0,0.017241379310344827,0.04482758620689655,0.0034482758620689655,0.034482758620689655,0.04482758620689655,0.0,0.0,0.0,0.013793103448275862,0.010344827586206896,0.027586206896551724,0.034482758620689655,0.0,0.0,0.0,0.041379310344827586,0.034482758620689655,0.04482758620689655,0.041379310344827586,0.02413793103448276,0.041379310344827586,0.0,0.0034482758620689655,0.0,0.03103448275862069,0.03103448275862069,0.017241379310344827,0.020689655172413793,0.0,0.0,0.0,0.03793103448275862,0.03103448275862069,0.03103448275862069,0.03103448275862069,0.0,0.010344827586206896,0.0,0.03103448275862069,0.04482758620689655,0.034482758620689655,0.03793103448275862,0.034482758620689655,0.041379310344827586
S9_D9 hbo,0.0,0.0,0.025179856115107913,0.02877697841726619,0.0,0.01079136690647482,0.0,0.0,0.017985611510791366,0.02877697841726619,0.0035971223021582736,0.02877697841726619,0.02877697841726619,0.0,0.0,0.0,0.014388489208633094,0.01079136690647482,0.02877697841726619,0.02877697841726619,0.0,0.0,0.0,0.02877697841726619,0.02877697841726619,0.02877697841726619,0.02877697841726619,0.046762589928057555,0.02877697841726619,0.01079136690647482,0.02158273381294964,0.0,0.02877697841726619,0.0539568345323741,0.03597122302158273,0.02158273381294964,0.0,0.0,0.025179856115107913,0.03597122302158273,0.02877697841726619,0.03237410071942446,0.0539568345323741,0.0,0.01079136690647482,0.0,0.02877697841726619,0.02877697841726619,0.02877697841726619,0.02877697841726619,0.050359712230215826,0.02877697841726619
S9_D11 hbo,0.0,0.0,0.02413793103448276,0.03793103448275862,0.0,0.010344827586206896,0.0,0.0,0.017241379310344827,0.04482758620689655,0.0034482758620689655,0.034482758620689655,0.04482758620689655,0.0,0.0,0.0,0.013793103448275862,0.010344827586206896,0.027586206896551724,0.034482758620689655,0.0,0.0,0.0,0.041379310344827586,0.034482758620689655,0.04482758620689655,0.041379310344827586,0.02413793103448276,0.041379310344827586,0.0,0.0034482758620689655,0.0,0.03103448275862069,0.03103448275862069,0.017241379310344827,0.020689655172413793,0.0,0.0,0.0,0.03793103448275862,0.03103448275862069,0.03103448275862069,0.03103448275862069,0.0,0.010344827586206896,0.0,0.03103448275862069,0.04482758620689655,0.034482758620689655,0.03793103448275862,0.034482758620689655,0.041379310344827586
S10_D9 hbo,0.0,0.0,0.014705882352941176,0.014705882352941176,0.0,0.014705882352941176,0.0,0.0,0.014705882352941176,0.014705882352941176,0.014705882352941176,0.014705882352941176,0.014705882352941176,0.0,0.0,0.0,0.014705882352941176,0.014705882352941176,0.014705882352941176,0.014705882352941176,0.0,0.0,0.0,0.014705882352941176,0.014705882352941176,0.014705882352941176,0.014705882352941176,0.07352941176470588,0.014705882352941176,0.04411764705882353,0.07352941176470588,0.0,0.014705882352941176,0.07352941176470588,0.07352941176470588,0.014705882352941176,0.0,0.0,0.058823529411764705,0.04411764705882353,0.014705882352941176,0.029411764705882353,0.07352941176470588,0.0,0.014705882352941176,0.0,0.014705882352941176,0.014705882352941176,0.014705882352941176,0.014705882352941176,0.07352941176470588,0.014705882352941176
S10_D10 hbo,0.0,0.0,0.017857142857142856,0.017857142857142856,0.0,0.017857142857142856,0.0,0.0,0.017857142857142856,0.017857142857142856,0.008928571428571428,0.017857142857142856,0.017857142857142856,0.0,0.0,0.0,0.017857142857142856,0.017857142857142856,0.017857142857142856,0.017857142857142856,0.0,0.0,0.0,0.017857142857142856,0.017857142857142856,0.017857142857142856,0.017857142857142856,0.07142857142857142,0.017857142857142856,0.026785714285714284,0.05357142857142857,0.0,0.017857142857142856,0.07142857142857142,0.0625,0.017857142857142856,0.0,0.0,0.05357142857142857,0.03571428571428571,0.017857142857142856,0.026785714285714284,0.07142857142857142,0.0,0.017857142857142856,0.0,0.017857142857142856,0.017857142857142856,0.017857142857142856,0.017857142857142856,0.07142857142857142,0.017857142857142856
S10_D12 hbo,0.0,0.0,0.009900990099009901,0.009900990099009901,0.0297029702970297,0.009900990099009901,0.0,0.0,0.009900990099009901,0.009900990099009901,0.019801980198019802,0.039603960396039604,0.009900990099009901,0.0,0.009900990099009901,0.0,0.039603960396039604,0.009900990099009901,0.009900990099009901,0.039603960396039604,0.0,0.0297029702970297,0.0297029702970297,0.039603960396039604,0.039603960396039604,0.039603960396039604,0.009900990099009901,0.009900990099009901,0.009900990099009901,0.0,0.009900990099009901,0.019801980198019802,0.009900990099009901,0.019801980198019802,0.039603960396039604,0.039603960396039604,0.0297029702970297,0.0297029702970297,0.0297029702970297,0.039603960396039604,0.009900990099009901,0.0297029702970297,0.039603960396039604,0.0297029702970297,0.009900990099009901,0.0297029702970297,0.039603960396039604,0.009900990099009901,0.019801980198019802,0.009900990099009901,0.0297029702970297,0.009900990099009901
S11_D9 hbo,0.0,0.0,0.026217228464419477,0.03745318352059925,0.0,0.011235955056179775,0.0,0.0,0.018726591760299626,0.03745318352059925,0.003745318352059925,0.03745318352059925,0.03745318352059925,0.0,0.0,0.0,0.0149812734082397,0.011235955056179775,0.0299625468164794,0.03745318352059925,0.0,0.0,0.0,0.03745318352059925,0.03745318352059925,0.03745318352059925,0.03745318352059925,0.026217228464419477,0.03745318352059925,0.0,0.003745318352059925,0.0,0.033707865168539325,0.033707865168539325,0.018726591760299626,0.02247191011235955,0.0,0.0,0.0,0.03745318352059925,0.033707865168539325,0.033707865168539325,0.033707865168539325,0.0,0.011235955056179775,0.0,0.033707865168539325,0.03745318352059925,0.03745318352059925,0.03745318352059925,0.03745318352059925,0.03745318352059925
S11_D11 hbo,0.0,0.0,0.018970189701897018,0.02710027100271003,0.005420054200542005,0.008130081300813009,0.0,0.0,0.013550135501355014,0.02710027100271003,0.005420054200542005,0.032520325203252036,0.02710027100271003,0.0,0.0027100271002710027,0.0,0.016260162601626018,0.008130081300813009,0.02168021680216802,0.032520325203252036,0.0,0.005420054200542005,0.005420054200542005,0.032520325203252036,0.032520325203252036,0.032520325203252036,0.02710027100271003,0.03523035230352303,0.02710027100271003,0.008130081300813009,0.016260162601626018,0.005420054200542005,0.024390243902439025,0.051490514905149054,0.032520325203252036,0.02168021680216802,0.005420054200542005,0.005420054200542005,0.024390243902439025,0.037940379403794036,0.024390243902439025,0.032520325203252036,0.056910569105691054,0.005420054200542005,0.008130081300813009,0.005420054200542005,0.02981029810298103,0.02710027100271003,0.02981029810298103,0.02710027100271003,0.04878048780487805,0.02710027100271003
S11_D12 hbo,0.0,0.0,0.014388489208633094,0.014388489208633094,0.011990407673860911,0.007194244604316547,0.0,0.0,0.011990407673860911,0.014388489208633094,0.019184652278177457,0.026378896882494004,0.014388489208633094,0.0,0.002398081534772182,0.0,0.03597122302158273,0.007194244604316547,0.014388489208633094,0.02877697841726619,0.0,0.014388489208633094,0.026378896882494004,0.02877697841726619,0.03357314148681055,0.03836930455635491,0.014388489208633094,0.02877697841726619,0.014388489208633094,0.007194244604316547,0.014388489208633094,0.004796163069544364,0.014388489208633094,0.03117505995203837,0.05515587529976019,0.04316546762589928,0.023980815347721823,0.023980815347721823,0.023980815347721823,0.03597122302158273,0.014388489208633094,0.02158273381294964,0.05275779376498801,0.03357314148681055,0.019184652278177457,0.023980815347721823,0.03836930455635491,0.014388489208633094,0.016786570743405275,0.016786570743405275,0.03357314148681055,0.014388489208633094
S11_D13 hbo,0.0,0.0,0.017948717948717947,0.017948717948717947,0.01282051282051282,0.007692307692307693,0.0,0.0,0.01282051282051282,0.017948717948717947,0.015384615384615385,0.03076923076923077,0.017948717948717947,0.0,0.002564102564102564,0.0,0.03333333333333333,0.007692307692307693,0.017948717948717947,0.03333333333333333,0.0,0.015384615384615385,0.03076923076923077,0.03333333333333333,0.038461538461538464,0.04358974358974359,0.017948717948717947,0.017948717948717947,0.017948717948717947,0.0,0.002564102564102564,0.005128205128205128,0.017948717948717947,0.020512820512820513,0.04358974358974359,0.04871794871794872,0.02564102564102564,0.02564102564102564,0.010256410256410256,0.035897435897435895,0.017948717948717947,0.023076923076923078,0.046153846153846156,0.03076923076923077,0.015384615384615385,0.028205128205128206,0.038461538461538464,0.017948717948717947,0.020512820512820513,0.020512820512820513,0.02564102564102564,0.017948717948717947
S12_D10 hbo,0.0,0.0,0.0,0.0,0.02976190476190476,0.0,0.0,0.0,0.0,0.0,0.023809523809523808,0.02976190476190476,0.0,0.0,0.005952380952380952,0.0,0.05357142857142857,0.0,0.0,0.03571428571428571,0.0,0.03571428571428571,0.05357142857142857,0.03571428571428571,0.047619047619047616,0.05357142857142857,0.0,0.0,0.0,0.0,0.0,0.011904761904761904,0.0,0.005952380952380952,0.07142857142857142,0.06547619047619048,0.05952380952380952,0.05357142857142857,0.023809523809523808,0.041666666666666664,0.0,0.011904761904761904,0.05357142857142857,0.06547619047619048,0.017857142857142856,0.05357142857142857,0.041666666666666664,0.0,0.005952380952380952,0.0,0.011904761904761904,0.0
S12_D12 hbo,0.0,0.0,0.0,0.0,0.029411764705882353,0.0,0.0,0.0,0.0,0.0,0.023529411764705882,0.029411764705882353,0.0,0.0,0.0058823529411764705,0.0,0.047058823529411764,0.0,0.0,0.03529411764705882,0.0,0.03529411764705882,0.06470588235294118,0.03529411764705882,0.047058823529411764,0.052941176470588235,0.0,0.0,0.0,0.0,0.0,0.011764705882352941,0.0,0.0058823529411764705,0.06470588235294118,0.06470588235294118,0.058823529411764705,0.058823529411764705,0.023529411764705882,0.041176470588235294,0.0,0.011764705882352941,0.052941176470588235,0.07058823529411765,0.011764705882352941,0.052941176470588235,0.041176470588235294,0.0,0.0058823529411764705,0.0058823529411764705,0.011764705882352941,0.0
S12_D14 hbo,0.0,0.0,0.0,0.0,0.032467532467532464,0.0,0.0,0.0,0.0,0.0,0.006493506493506494,0.032467532467532464,0.0,0.0,0.006493506493506494,0.0,0.032467532467532464,0.0,0.0,0.032467532467532464,0.0,0.032467532467532464,0.032467532467532464,0.032467532467532464,0.032467532467532464,0.032467532467532464,0.0,0.03896103896103896,0.0,0.01948051948051948,0.032467532467532464,0.012987012987012988,0.0,0.05844155844155844,0.06493506493506493,0.032467532467532464,0.032467532467532464,0.032467532467532464,0.07142857142857142,0.045454545454545456,0.0,0.01948051948051948,0.08441558441558442,0.032467532467532464,0.0,0.032467532467532464,0.025974025974025976,0.0,0.006493506493506494,0.0,0.05194805194805195,0.0
S13_D6 hbo,0.0,0.0,0.015486725663716814,0.024336283185840708,0.011061946902654867,0.00663716814159292,0.0,0.0,0.011061946902654867,0.02654867256637168,0.004424778761061947,0.033185840707964605,0.02654867256637168,0.0,0.0022123893805309734,0.0,0.022123893805309734,0.00663716814159292,0.017699115044247787,0.035398230088495575,0.0,0.01327433628318584,0.017699115044247787,0.03982300884955752,0.03982300884955752,0.04424778761061947,0.02654867256637168,0.022123893805309734,0.02654867256637168,0.00663716814159292,0.008849557522123894,0.004424778761061947,0.01991150442477876,0.028761061946902654,0.035398230088495575,0.030973451327433628,0.017699115044247787,0.017699115044247787,0.015486725663716814,0.04424778761061947,0.01991150442477876,0.02654867256637168,0.04424778761061947,0.017699115044247787,0.00663716814159292,0.017699115044247787,0.028761061946902654,0.02654867256637168,0.024336283185840708,0.024336283185840708,0.033185840707964605,0.02654867256637168
S13_D11 hbo,0.0,0.0,0.025454545454545455,0.03636363636363636,0.0,0.01090909090909091,0.0,0.0,0.01818181818181818,0.03636363636363636,0.0036363636363636364,0.04727272727272727,0.03636363636363636,0.0,0.0,0.0,0.014545454545454545,0.01090909090909091,0.02909090909090909,0.03636363636363636,0.0,0.0,0.0,0.03636363636363636,0.03636363636363636,0.03636363636363636,0.03636363636363636,0.025454545454545455,0.03636363636363636,0.0,0.0036363636363636364,0.0,0.03272727272727273,0.03272727272727273,0.01818181818181818,0.02181818181818182,0.0,0.0,0.0,0.03636363636363636,0.04,0.03272727272727273,0.03272727272727273,0.0,0.01090909090909091,0.0,0.03272727272727273,0.03636363636363636,0.03636363636363636,0.04727272727272727,0.03636363636363636,0.03636363636363636
S13_D13 hbo,0.0,0.0,0.019830028328611898,0.028328611898016998,0.0084985835694051,0.0084985835694051,0.0,0.0,0.014164305949008499,0.028328611898016998,0.0056657223796034,0.036827195467422094,0.028328611898016998,0.0,0.0028328611898017,0.0,0.019830028328611898,0.0084985835694051,0.0226628895184136,0.036827195467422094,0.0,0.0084985835694051,0.0084985835694051,0.036827195467422094,0.036827195467422094,0.036827195467422094,0.028328611898016998,0.025495750708215296,0.028328611898016998,0.0056657223796034,0.0084985835694051,0.0056657223796034,0.025495750708215296,0.0339943342776204,0.028328611898016998,0.025495750708215296,0.0084985835694051,0.0084985835694051,0.014164305949008499,0.042492917847025496,0.025495750708215296,0.0339943342776204,0.039660056657223795,0.0084985835694051,0.0084985835694051,0.0084985835694051,0.0339943342776204,0.028328611898016998,0.031161473087818695,0.028328611898016998,0.039660056657223795,0.028328611898016998
S13_D15 hbo,0.0,0.0,0.014583333333333334,0.020833333333333332,0.010416666666666666,0.00625,0.0,0.0,0.010416666666666666,0.020833333333333332,0.004166666666666667,0.03125,0.020833333333333332,0.0,0.0020833333333333333,0.0,0.020833333333333332,0.00625,0.016666666666666666,0.03333333333333333,0.0,0.0125,0.027083333333333334,0.03333333333333333,0.0375,0.041666666666666664,0.020833333333333332,0.027083333333333334,0.020833333333333332,0.00625,0.0125,0.004166666666666667,0.01875,0.03958333333333333,0.03958333333333333,0.03333333333333333,0.016666666666666666,0.016666666666666666,0.022916666666666665,0.03958333333333333,0.01875,0.025,0.07083333333333333,0.016666666666666666,0.00625,0.022916666666666665,0.027083333333333334,0.020833333333333332,0.022916666666666665,0.020833333333333332,0.0375,0.020833333333333332
S14_D12 hbo,0.0,0.0,0.0,0.0,0.02127659574468085,0.0,0.0,0.0,0.0,0.0,0.0425531914893617,0.02127659574468085,0.0,0.0,0.00425531914893617,0.0,0.07659574468085106,0.0,0.0,0.02553191489361702,0.0,0.02553191489361702,0.059574468085106386,0.029787234042553193,0.03404255319148936,0.03829787234042553,0.0,0.0,0.0,0.0,0.0,0.00851063829787234,0.0,0.00425531914893617,0.05531914893617021,0.04680851063829787,0.0425531914893617,0.0425531914893617,0.01702127659574468,0.029787234042553193,0.0,0.00851063829787234,0.03829787234042553,0.15319148936170213,0.0425531914893617,0.03829787234042553,0.06808510638297872,0.0,0.00425531914893617,0.01276595744680851,0.00851063829787234,0.0
S14_D13 hbo,0.0,0.0,0.021739130434782608,0.021739130434782608,0.0,0.016304347826086956,0.0,0.0,0.021739130434782608,0.021739130434782608,0.04891304347826087,0.021739130434782608,0.021739130434782608,0.0,0.0,0.0,0.07065217391304347,0.016304347826086956,0.021739130434782608,0.021739130434782608,0.0,0.0,0.0,0.021739130434782608,0.021739130434782608,0.021739130434782608,0.021739130434782608,0.021739130434782608,0.021739130434782608,0.0,0.005434782608695652,0.0,0.021739130434782608,0.021739130434782608,0.043478260869565216,0.03260869565217391,0.010869565217391304,0.005434782608695652,0.0,0.021739130434782608,0.021739130434782608,0.021739130434782608,0.021739130434782608,0.06521739130434782,0.07065217391304347,0.0,0.07065217391304347,0.021739130434782608,0.021739130434782608,0.021739130434782608,0.021739130434782608,0.021739130434782608
S14_D14 hbo,0.0,0.0,0.0,0.0,0.031055900621118012,0.0,0.0,0.0,0.0,0.0,0.012422360248447204,0.031055900621118012,0.0,0.0,0.006211180124223602,0.0,0.037267080745341616,0.0,0.0,0.037267080745341616,0.0,0.037267080745341616,0.08074534161490683,0.037267080745341616,0.049689440993788817,0.062111801242236024,0.0,0.0,0.0,0.0,0.0,0.012422360248447204,0.0,0.006211180124223602,0.055900621118012424,0.062111801242236024,0.049689440993788817,0.055900621118012424,0.024844720496894408,0.043478260869565216,0.0,0.012422360248447204,0.07453416149068323,0.055900621118012424,0.0,0.06832298136645963,0.031055900621118012,0.0,0.006211180124223602,0.006211180124223602,0.012422360248447204,0.0
S14_D16 hbo,0.0,0.0,0.01598173515981735,0.0228310502283105,0.01141552511415525,0.00684931506849315,0.0,0.0,0.01141552511415525,0.0228310502283105,0.02511415525114155,0.03424657534246575,0.0228310502283105,0.0,0.00228310502283105,0.0,0.04794520547945205,0.00684931506849315,0.0182648401826484,0.03424657534246575,0.0,0.01141552511415525,0.01598173515981735,0.03424657534246575,0.03424657534246575,0.03424657534246575,0.0228310502283105,0.01598173515981735,0.0228310502283105,0.0,0.00228310502283105,0.0045662100456621,0.02054794520547945,0.0228310502283105,0.0319634703196347,0.02968036529680365,0.01598173515981735,0.01598173515981735,0.0091324200913242,0.03424657534246575,0.02054794520547945,0.02511415525114155,0.0319634703196347,0.04337899543378995,0.02511415525114155,0.01141552511415525,0.05707762557077625,0.0228310502283105,0.02511415525114155,0.02511415525114155,0.0273972602739726,0.0228310502283105
S15_D13 hbo,0.0,0.0,0.023972602739726026,0.03767123287671233,0.0,0.010273972602739725,0.0,0.0,0.017123287671232876,0.04452054794520548,0.003424657534246575,0.03424657534246575,0.04794520547945205,0.0,0.0,0.0,0.0136986301369863,0.010273972602739725,0.0273972602739726,0.03424657534246575,0.0,0.0,0.0,0.0410958904109589,0.03424657534246575,0.04794520547945205,0.0410958904109589,0.023972602739726026,0.0410958904109589,0.0,0.003424657534246575,0.0,0.030821917808219176,0.030821917808219176,0.017123287671232876,0.02054794520547945,0.0,0.0,0.0,0.03767123287671233,0.030821917808219176,0.030821917808219176,0.030821917808219176,0.0,0.010273972602739725,0.0,0.030821917808219176,0.04452054794520548,0.03424657534246575,0.03767123287671233,0.03424657534246575,0.0410958904109589
S15_D15 hbo,0.0,0.0,0.02127659574468085,0.03343465045592705,0.0060790273556231,0.00911854103343465,0.0,0.0,0.015197568389057751,0.0364741641337386,0.00911854103343465,0.0364741641337386,0.03343465045592705,0.0,0.00303951367781155,0.0,0.0182370820668693,0.00911854103343465,0.02735562310030395,0.0364741641337386,0.0,0.0060790273556231,0.0060790273556231,0.03951367781155015,0.0364741641337386,0.03951367781155015,0.03343465045592705,0.02127659574468085,0.03343465045592705,0.0,0.00303951367781155,0.0060790273556231,0.02735562310030395,0.030395136778115502,0.02127659574468085,0.0243161094224924,0.0060790273556231,0.0060790273556231,0.0060790273556231,0.03951367781155015,0.02735562310030395,0.03343465045592705,0.03343465045592705,0.0060790273556231,0.00911854103343465,0.0060790273556231,0.03343465045592705,0.03343465045592705,0.03343465045592705,0.03343465045592705,0.0364741641337386,0.03343465045592705
S15_D16 hbo,0.0,0.0,0.022727272727272728,0.03571428571428571,0.0,0.00974025974025974,0.0,0.0,0.016233766233766232,0.03896103896103896,0.006493506493506494,0.048701298701298704,0.03896103896103896,0.0,0.0,0.0,0.012987012987012988,0.00974025974025974,0.025974025974025976,0.032467532467532464,0.0,0.0,0.006493506493506494,0.03896103896103896,0.032467532467532464,0.03896103896103896,0.03896103896103896,0.022727272727272728,0.03896103896103896,0.0,0.003246753246753247,0.0,0.02922077922077922,0.02922077922077922,0.016233766233766232,0.01948051948051948,0.0,0.003246753246753247,0.0,0.03571428571428571,0.03571428571428571,0.02922077922077922,0.02922077922077922,0.00974025974025974,0.00974025974025974,0.0,0.032467532467532464,0.03896103896103896,0.032467532467532464,0.05844155844155844,0.032467532467532464,0.03896103896103896
S16_D14 hbo,0.0,0.0,0.017676767676767676,0.027777777777777776,0.007575757575757576,0.007575757575757576,0.0,0.0,0.012626262626262626,0.027777777777777776,0.005050505050505051,0.03282828282828283,0.027777777777777776,0.0,0.0025252525252525255,0.0,0.017676767676767676,0.007575757575757576,0.020202020202020204,0.03282828282828283,0.0,0.007575757575757576,0.007575757575757576,0.03535353535353535,0.03282828282828283,0.03535353535353535,0.027777777777777776,0.03282828282828283,0.027777777777777776,0.007575757575757576,0.015151515151515152,0.005050505050505051,0.022727272727272728,0.04292929292929293,0.03282828282828283,0.025252525252525252,0.007575757575757576,0.007575757575757576,0.025252525252525252,0.04040404040404041,0.022727272727272728,0.030303030303030304,0.047979797979797977,0.007575757575757576,0.007575757575757576,0.007575757575757576,0.030303030303030304,0.027777777777777776,0.027777777777777776,0.027777777777777776,0.047979797979797977,0.027777777777777776
S16_D16 hbo,0.0,0.0,0.02413793103448276,0.03793103448275862,0.0,0.010344827586206896,0.0,0.0,0.017241379310344827,0.04482758620689655,0.0034482758620689655,0.034482758620689655,0.04482758620689655,0.0,0.0,0.0,0.013793103448275862,0.010344827586206896,0.027586206896551724,0.034482758620689655,0.0,0.0,0.0,0.041379310344827586,0.034482758620689655,0.04482758620689655,0.041379310344827586,0.02413793103448276,0.041379310344827586,0.0,0.0034482758620689655,0.0,0.03103448275862069,0.03103448275862069,0.017241379310344827,0.020689655172413793,0.0,0.0,0.0,0.03793103448275862,0.03103448275862069,0.03103448275862069,0.03103448275862069,0.0,0.010344827586206896,0.0,0.03103448275862069,0.04482758620689655,0.034482758620689655,0.03793103448275862,0.034482758620689655,0.041379310344827586
