,S1_D1 hbo,S1_D3 hbo,S2_D1 hbo,S2_D2 hbo,S2_D4 hbo,S3_D1 hbo,S3_D3 hbo,S3_D4 hbo,S3_D5 hbo,S4_D2 hbo,S4_D4 hbo,S4_D6 hbo,S4_D11 hbo,S5_D3 hbo,S5_D5 hbo,S5_D7 hbo,S6_D4 hbo,S6_D5 hbo,S6_D6 hbo,S6_D8 hbo,S7_D5 hbo,S7_D7 hbo,S7_D8 hbo,S8_D6 hbo,S8_D8 hbo,S8_D15 hbo,S9_D2 hbo,S9_D9 hbo,S9_D11 hbo,S10_D9 hbo,S10_D10 hbo,S10_D12 hbo,S11_D9 hbo,S11_D11 hbo,S11_D12 hbo,S11_D13 hbo,S12_D10 hbo,S12_D12 hbo,S12_D14 hbo,S13_D6 hbo,S13_D11 hbo,S13_D13 hbo,S13_D15 hbo,S14_D12 hbo,S14_D13 hbo,S14_D14 hbo,S14_D16 hbo,S15_D13 hbo,S15_D15 hbo,S15_D16 hbo,S16_D14 hbo,S16_D16 hbo
S1_D1 hbo,0.2565789473684211,0.0,0.0,0.0,0.0,0.0,0.0,0.0,0.0,0.0,0.0,0.0,0.0,0.046052631578947366,0.0,0.17763157894736842,0.0,0.0,0.0,0.0,0.046052631578947366,0.0,0.0,0.0,0.02631578947368421,0.0,0.0,0.006578947368421052,0.0,0.046052631578947366,0.0,0.0,0.03289473684210526,0.0,0.0,0.0,0.0,0.046052631578947366,0.0,0.0,0.0,0.0,0.039473684210526314,0.0,0.046052631578947366,0.046052631578947366,0.0,0.046052631578947366,0.09210526315789473,0.0,0.0,0.046052631578947366
S1_D3 hbo,0.0,0.026376146788990827,0.021788990825688075,0.01834862385321101,0.0194954128440367,0.0,0.022935779816513763,0.020642201834862386,0.022935779816513763,0.020642201834862386,0.020642201834862386,0.021788990825688075,0.02408256880733945,0.022935779816513763,0.022935779816513763,0.0,0.020642201834862386,0.020642201834862386,0.01834862385321101,0.021788990825688075,0.020642201834862386,0.020642201834862386,0.0194954128440367,0.020642201834862386,0.0194954128440367,0.020642201834862386,0.021788990825688075,0.01834862385321101,0.02408256880733945,0.020642201834862386,0.021788990825688075,0.01834862385321101,0.020642201834862386,0.0194954128440367,0.01834862385321101,0.022935779816513763,0.020642201834862386,0.020642201834862386,0.020642201834862386,0.01834862385321101,0.021788990825688075,0.020642201834862386,0.022935779816513763,0.01834862385321101,0.020642201834862386,0.020642201834862386,0.01834862385321101,0.020642201834862386,0.0,0.020642201834862386,0.021788990825688075,0.01834862385321101
S2_D1 hbo,0.0,0.021205357142857144,0.022321428571428572,0.020089285714285716,0.020089285714285716,0.0,0.021205357142857144,0.021205357142857144,0.0234375,0.021205357142857144,0.021205357142857144,0.020089285714285716,0.022321428571428572,0.0234375,0.0234375,0.0,0.021205357142857144,0.021205357142857144,0.017857142857142856,0.021205357142857144,0.021205357142857144,0.021205357142857144,0.020089285714285716,0.020089285714285716,0.020089285714285716,0.018973214285714284,0.021205357142857144,0.018973214285714284,0.022321428571428572,0.021205357142857144,0.022321428571428572,0.018973214285714284,0.021205357142857144,0.020089285714285716,0.018973214285714284,0.021205357142857144,0.021205357142857144,0.021205357142857144,0.021205357142857144,0.018973214285714284,0.020089285714285716,0.021205357142857144,0.021205357142857144,0.018973214285714284,0.021205357142857144,0.021205357142857144,0.018973214285714284,0.021205357142857144,0.0,0.021205357142857144,0.022321428571428572,0.018973214285714284
S2_D2 hbo,0.0,0.019128586609989374,0.021253985122210415,0.02763018065887354,0.026567481402763018,0.009564293304994687,0.019128586609989374,0.020191285866099893,0.021253985122210415,0.022316684378320937,0.020191285866099893,0.019128586609989374,0.020191285866099893,0.020191285866099893,0.026567481402763018,0.008501594048884165,0.020191285866099893,0.020191285866099893,0.01700318809776833,0.020191285866099893,0.020191285866099893,0.020191285866099893,0.019128586609989374,0.019128586609989374,0.019128586609989374,0.018065887353878853,0.020191285866099893,0.018065887353878853,0.020191285866099893,0.019128586609989374,0.021253985122210415,0.018065887353878853,0.020191285866099893,0.019128586609989374,0.018065887353878853,0.020191285866099893,0.020191285866099893,0.020191285866099893,0.020191285866099893,0.018065887353878853,0.019128586609989374,0.020191285866099893,0.020191285866099893,0.018065887353878853,0.020191285866099893,0.020191285866099893,0.018065887353878853,0.020191285866099893,0.008501594048884165,0.020191285866099893,0.028692879914984058,0.018065887353878853
S2_D4 hbo,0.0,0.019269776876267748,0.02129817444219067,0.02636916835699797,0.030425963488843813,0.007099391480730223,0.019269776876267748,0.02028397565922921,0.02129817444219067,0.02231237322515213,0.02028397565922921,0.019269776876267748,0.02028397565922921,0.02028397565922921,0.02535496957403651,0.007099391480730223,0.02028397565922921,0.02028397565922921,0.017241379310344827,0.02028397565922921,0.02028397565922921,0.02028397565922921,0.019269776876267748,0.019269776876267748,0.019269776876267748,0.018255578093306288,0.02028397565922921,0.018255578093306288,0.02028397565922921,0.019269776876267748,0.02129817444219067,0.018255578093306288,0.02028397565922921,0.019269776876267748,0.018255578093306288,0.02028397565922921,0.02028397565922921,0.02028397565922921,0.02028397565922921,0.018255578093306288,0.019269776876267748,0.02028397565922921,0.02028397565922921,0.018255578093306288,0.02028397565922921,0.02028397565922921,0.018255578093306288,0.02028397565922921,0.007099391480730223,0.02028397565922921,0.02738336713995943,0.018255578093306288
S3_D1 hbo,0.0,0.0,0.0,0.10465116279069768,0.08139534883720931,0.26744186046511625,0.0,0.0,0.0,0.023255813953488372,0.0,0.0,0.0,0.0,0.06976744186046512,0.18604651162790697,0.0,0.0,0.0,0.0,0.0,0.0,0.0,0.0,0.0,0.0,0.0,0.0,0.0,0.0,0.0,0.0,0.0,0.0,0.0,0.0,0.0,0.0,0.0,0.0,0.0,0.0,0.0,0.0,0.0,0.0,0.0,0.0,0.1744186046511628,0.0,0.09302325581395349,0.0
S3_D3 hbo,0.0,0.02575107296137339,0.02145922746781116,0.018240343347639486,0.019313304721030045,0.0,0.023605150214592276,0.0203862660944206,0.02145922746781116,0.02145922746781116,0.0203862660944206,0.022532188841201718,0.023605150214592276,0.02145922746781116,0.02145922746781116,0.0,0.02145922746781116,0.0203862660944206,0.019313304721030045,0.022532188841201718,0.0203862660944206,0.0203862660944206,0.019313304721030045,0.02145922746781116,0.019313304721030045,0.02145922746781116,0.022532188841201718,0.019313304721030045,0.023605150214592276,0.0203862660944206,0.02145922746781116,0.018240343347639486,0.0203862660944206,0.019313304721030045,0.019313304721030045,0.023605150214592276,0.0203862660944206,0.0203862660944206,0.0203862660944206,0.019313304721030045,0.022532188841201718,0.0203862660944206,0.023605150214592276,0.018240343347639486,0.0203862660944206,0.0203862660944206,0.018240343347639486,0.0203862660944206,0.0,0.0203862660944206,0.02145922746781116,0.018240343347639486
S3_D4 hbo,0.0,0.019267822736030827,0.02119460500963391,0.019267822736030827,0.02023121387283237,0.0,0.019267822736030827,0.023121387283236993,0.022157996146435453,0.02023121387283237,0.022157996146435453,0.022157996146435453,0.022157996146435453,0.02119460500963391,0.02119460500963391,0.0,0.022157996146435453,0.02119460500963391,0.02023121387283237,0.022157996146435453,0.02119460500963391,0.02023121387283237,0.022157996146435453,0.02119460500963391,0.02023121387283237,0.02023121387283237,0.02023121387283237,0.019267822736030827,0.02119460500963391,0.019267822736030827,0.022157996146435453,0.02023121387283237,0.02119460500963391,0.02023121387283237,0.02023121387283237,0.02119460500963391,0.02119460500963391,0.02119460500963391,0.02023121387283237,0.02023121387283237,0.02023121387283237,0.02119460500963391,0.02119460500963391,0.019267822736030827,0.02119460500963391,0.02119460500963391,0.019267822736030827,0.02119460500963391,0.0,0.02119460500963391,0.022157996146435453,0.019267822736030827
S3_D5 hbo,0.0,0.021231422505307854,0.022292993630573247,0.01910828025477707,0.020169851380042462,0.0,0.021231422505307854,0.021231422505307854,0.02335456475583864,0.020169851380042462,0.021231422505307854,0.020169851380042462,0.022292993630573247,0.02335456475583864,0.02335456475583864,0.0,0.021231422505307854,0.021231422505307854,0.018046709129511677,0.021231422505307854,0.021231422505307854,0.021231422505307854,0.020169851380042462,0.020169851380042462,0.020169851380042462,0.01910828025477707,0.021231422505307854,0.01910828025477707,0.022292993630573247,0.021231422505307854,0.022292993630573247,0.01910828025477707,0.021231422505307854,0.020169851380042462,0.01910828025477707,0.021231422505307854,0.021231422505307854,0.021231422505307854,0.021231422505307854,0.01910828025477707,0.020169851380042462,0.021231422505307854,0.021231422505307854,0.01910828025477707,0.021231422505307854,0.021231422505307854,0.01910828025477707,0.021231422505307854,0.0,0.021231422505307854,0.022292993630573247,0.01910828025477707
S4_D2 hbo,0.0,0.021528525296017224,0.021528525296017224,0.021528525296017224,0.021528525296017224,0.002152852529601722,0.021528525296017224,0.02045209903121636,0.022604951560818085,0.022604951560818085,0.02045209903121636,0.021528525296017224,0.023681377825618945,0.021528525296017224,0.023681377825618945,0.002152852529601722,0.02045209903121636,0.02045209903121636,0.01829924650161464,0.021528525296017224,0.02045209903121636,0.02045209903121636,0.0193756727664155,0.02045209903121636,0.0193756727664155,0.02045209903121636,0.021528525296017224,0.01829924650161464,0.023681377825618945,0.0193756727664155,0.021528525296017224,0.01829924650161464,0.02045209903121636,0.0193756727664155,0.01829924650161464,0.022604951560818085,0.02045209903121636,0.02045209903121636,0.02045209903121636,0.01829924650161464,0.021528525296017224,0.02045209903121636,0.022604951560818085,0.01829924650161464,0.02045209903121636,0.02045209903121636,0.01829924650161464,0.02045209903121636,0.002152852529601722,0.02045209903121636,0.023681377825618945,0.01829924650161464
S4_D4 hbo,0.0,0.019267822736030827,0.02119460500963391,0.019267822736030827,0.02023121387283237,0.0,0.019267822736030827,0.023121387283236993,0.022157996146435453,0.02023121387283237,0.022157996146435453,0.022157996146435453,0.022157996146435453,0.02119460500963391,0.02119460500963391,0.0,0.022157996146435453,0.02119460500963391,0.02023121387283237,0.022157996146435453,0.02119460500963391,0.02023121387283237,0.022157996146435453,0.02119460500963391,0.02023121387283237,0.02023121387283237,0.02023121387283237,0.019267822736030827,0.02119460500963391,0.019267822736030827,0.022157996146435453,0.02023121387283237,0.02119460500963391,0.02023121387283237,0.02023121387283237,0.02119460500963391,0.02119460500963391,0.02119460500963391,0.02023121387283237,0.02023121387283237,0.02023121387283237,0.02119460500963391,0.02119460500963391,0.019267822736030827,0.02119460500963391,0.02119460500963391,0.019267822736030827,0.02119460500963391,0.0,0.02119460500963391,0.022157996146435453,0.019267822736030827
S4_D6 hbo,0.0,0.0200836820083682,0.017573221757322177,0.016736401673640166,0.017573221757322177,0.0,0.0200836820083682,0.022594142259414227,0.019246861924686193,0.019246861924686193,0.021757322175732216,0.026778242677824266,0.022594142259414227,0.018410041841004185,0.018410041841004185,0.0,0.024267782426778243,0.019246861924686193,0.024267782426778243,0.02510460251046025,0.019246861924686193,0.018410041841004185,0.023430962343096235,0.02510460251046025,0.017573221757322177,0.02510460251046025,0.0200836820083682,0.022594142259414227,0.021757322175732216,0.016736401673640166,0.0200836820083682,0.021757322175732216,0.0200836820083682,0.018410041841004185,0.023430962343096235,0.022594142259414227,0.0200836820083682,0.0200836820083682,0.018410041841004185,0.023430962343096235,0.024267782426778243,0.02092050209205021,0.022594142259414227,0.02092050209205021,0.0200836820083682,0.019246861924686193,0.02092050209205021,0.0200836820083682,0.0,0.0200836820083682,0.0200836820083682,0.018410041841004185
S4_D11 hbo,0.0,0.022794846382556987,0.02180376610505451,0.018830525272547076,0.019821605550049554,0.0,0.02180376610505451,0.02081268582755203,0.022794846382556987,0.02081268582755203,0.02081268582755203,0.02180376610505451,0.023785926660059464,0.02180376610505451,0.02180376610505451,0.0,0.02081268582755203,0.02081268582755203,0.018830525272547076,0.02180376610505451,0.02081268582755203,0.02081268582755203,0.019821605550049554,0.02081268582755203,0.019821605550049554,0.02081268582755203,0.02180376610505451,0.018830525272547076,0.023785926660059464,0.019821605550049554,0.02180376610505451,0.018830525272547076,0.02081268582755203,0.019821605550049554,0.018830525272547076,0.022794846382556987,0.02081268582755203,0.02081268582755203,0.02081268582755203,0.018830525272547076,0.02180376610505451,0.02081268582755203,0.022794846382556987,0.018830525272547076,0.02081268582755203,0.02081268582755203,0.018830525272547076,0.02081268582755203,0.0,0.02081268582755203,0.02180376610505451,0.018830525272547076
S5_D3 hbo,0.006160164271047228,0.02053388090349076,0.02053388090349076,0.017453798767967144,0.018480492813141684,0.0,0.019507186858316223,0.019507186858316223,0.021560574948665298,0.018480492813141684,0.019507186858316223,0.018480492813141684,0.02053388090349076,0.028747433264887063,0.021560574948665298,0.0,0.019507186858316223,0.019507186858316223,0.01642710472279261,0.019507186858316223,0.027720739219712527,0.019507186858316223,0.018480492813141684,0.018480492813141684,0.022587268993839837,0.017453798767967144,0.019507186858316223,0.017453798767967144,0.02053388090349076,0.027720739219712527,0.02053388090349076,0.017453798767967144,0.024640657084188913,0.018480492813141684,0.017453798767967144,0.019507186858316223,0.019507186858316223,0.026694045174537988,0.019507186858316223,0.017453798767967144,0.018480492813141684,0.019507186858316223,0.02566735112936345,0.017453798767967144,0.026694045174537988,0.026694045174537988,0.017453798767967144,0.026694045174537988,0.0,0.019507186858316223,0.02053388090349076,0.024640657084188913
S5_D5 hbo,0.0,0.021321961620469083,0.021321961620469083,0.024520255863539446,0.0255863539445629,0.006396588486140725,0.02025586353944563,0.02025586353944563,0.022388059701492536,0.021321961620469083,0.02025586353944563,0.019189765458422176,0.021321961620469083,0.022388059701492536,0.02771855010660981,0.006396588486140725,0.02025586353944563,0.02025586353944563,0.017057569296375266,0.02025586353944563,0.02025586353944563,0.02025586353944563,0.019189765458422176,0.019189765458422176,0.019189765458422176,0.01812366737739872,0.02025586353944563,0.01812366737739872,0.021321961620469083,0.02025586353944563,0.021321961620469083,0.01812366737739872,0.02025586353944563,0.019189765458422176,0.01812366737739872,0.02025586353944563,0.02025586353944563,0.02025586353944563,0.02025586353944563,0.01812366737739872,0.019189765458422176,0.02025586353944563,0.02025586353944563,0.01812366737739872,0.02025586353944563,0.02025586353944563,0.01812366737739872,0.02025586353944563,0.006396588486140725,0.02025586353944563,0.02771855010660981,0.01812366737739872
S5_D7 hbo,0.2,0.0,0.0,0.06428571428571428,0.05,0.12142857142857143,0.0,0.0,0.0,0.014285714285714285,0.0,0.0,0.0,0.0,0.04285714285714286,0.3,0.0,0.0,0.0,0.0,0.0,0.0,0.0,0.0,0.0,0.0,0.0,0.0,0.0,0.0,0.0,0.0,0.0,0.0,0.0,0.0,0.0,0.0,0.0,0.0,0.0,0.0,0.0,0.0,0.0,0.0,0.0,0.0,0.15,0.0,0.05714285714285714,0.0
S6_D4 hbo,0.0,0.019390581717451522,0.020313942751615882,0.018467220683287166,0.019390581717451522,0.0,0.019390581717451522,0.023084025854108958,0.02123730378578024,0.020313942751615882,0.0221606648199446,0.024007386888273315,0.0221606648199446,0.020313942751615882,0.020313942751615882,0.0,0.023084025854108958,0.020313942751615882,0.0221606648199446,0.024007386888273315,0.020313942751615882,0.019390581717451522,0.023084025854108958,0.023084025854108958,0.019390581717451522,0.0221606648199446,0.020313942751615882,0.020313942751615882,0.02123730378578024,0.018467220683287166,0.02123730378578024,0.02123730378578024,0.020313942751615882,0.019390581717451522,0.02123730378578024,0.02123730378578024,0.020313942751615882,0.020313942751615882,0.019390581717451522,0.02123730378578024,0.0221606648199446,0.02123730378578024,0.02123730378578024,0.020313942751615882,0.020313942751615882,0.020313942751615882,0.020313942751615882,0.020313942751615882,0.0,0.020313942751615882,0.02123730378578024,0.018467220683287166
S6_D5 hbo,0.0,0.02048780487804878,0.021463414634146343,0.018536585365853658,0.01951219512195122,0.0,0.02048780487804878,0.021463414634146343,0.023414634146341463,0.01951219512195122,0.021463414634146343,0.02048780487804878,0.0224390243902439,0.0224390243902439,0.0224390243902439,0.0,0.021463414634146343,0.021463414634146343,0.018536585365853658,0.021463414634146343,0.021463414634146343,0.021463414634146343,0.02048780487804878,0.02048780487804878,0.01951219512195122,0.01951219512195122,0.02048780487804878,0.01951219512195122,0.021463414634146343,0.01951219512195122,0.0224390243902439,0.01951219512195122,0.021463414634146343,0.02048780487804878,0.01951219512195122,0.021463414634146343,0.021463414634146343,0.021463414634146343,0.021463414634146343,0.01951219512195122,0.02048780487804878,0.021463414634146343,0.021463414634146343,0.01951219512195122,0.021463414634146343,0.021463414634146343,0.01951219512195122,0.021463414634146343,0.0,0.021463414634146343,0.0224390243902439,0.01951219512195122
S6_D6 hbo,0.0,0.01877133105802048,0.017064846416382253,0.016211604095563138,0.017064846416382253,0.0,0.01962457337883959,0.02218430034129693,0.017918088737201365,0.01877133105802048,0.021331058020477817,0.02901023890784983,0.021331058020477817,0.017064846416382253,0.017064846416382253,0.0,0.023890784982935155,0.01877133105802048,0.026450511945392493,0.024744027303754267,0.01877133105802048,0.017918088737201365,0.023890784982935155,0.027303754266211604,0.017064846416382253,0.027303754266211604,0.020477815699658702,0.024744027303754267,0.020477815699658702,0.016211604095563138,0.01962457337883959,0.02303754266211604,0.01962457337883959,0.01877133105802048,0.024744027303754267,0.02218430034129693,0.01962457337883959,0.01962457337883959,0.017918088737201365,0.025597269624573378,0.024744027303754267,0.020477815699658702,0.02218430034129693,0.02218430034129693,0.01962457337883959,0.01877133105802048,0.02218430034129693,0.01962457337883959,0.0,0.01962457337883959,0.01962457337883959,0.01877133105802048
S6_D8 hbo,0.0,0.02112676056338028,0.01936619718309859,0.017605633802816902,0.018485915492957746,0.0,0.02112676056338028,0.022887323943661973,0.02112676056338028,0.020246478873239437,0.022007042253521125,0.02464788732394366,0.023767605633802816,0.020246478873239437,0.020246478873239437,0.0,0.022887323943661973,0.020246478873239437,0.022007042253521125,0.023767605633802816,0.020246478873239437,0.01936619718309859,0.022007042253521125,0.022887323943661973,0.018485915492957746,0.022887323943661973,0.020246478873239437,0.020246478873239437,0.022007042253521125,0.017605633802816902,0.02112676056338028,0.020246478873239437,0.020246478873239437,0.01936619718309859,0.02112676056338028,0.022887323943661973,0.020246478873239437,0.020246478873239437,0.01936619718309859,0.02112676056338028,0.022887323943661973,0.02112676056338028,0.022887323943661973,0.01936619718309859,0.020246478873239437,0.020246478873239437,0.01936619718309859,0.020246478873239437,0.0,0.020246478873239437,0.02112676056338028,0.018485915492957746
S7_D5 hbo,0.005434782608695652,0.019021739130434784,0.019927536231884056,0.017210144927536232,0.018115942028985508,0.0,0.019021739130434784,0.019927536231884056,0.021739130434782608,0.018115942028985508,0.019927536231884056,0.019021739130434784,0.020833333333333332,0.02717391304347826,0.020833333333333332,0.0,0.019927536231884056,0.019927536231884056,0.017210144927536232,0.019927536231884056,0.02717391304347826,0.019927536231884056,0.019021739130434784,0.019021739130434784,0.021739130434782608,0.018115942028985508,0.019021739130434784,0.018115942028985508,0.019927536231884056,0.025362318840579712,0.020833333333333332,0.018115942028985508,0.024456521739130436,0.019021739130434784,0.018115942028985508,0.019927536231884056,0.019927536231884056,0.026268115942028984,0.019927536231884056,0.018115942028985508,0.019021739130434784,0.019927536231884056,0.025362318840579712,0.018115942028985508,0.026268115942028984,0.026268115942028984,0.018115942028985508,0.026268115942028984,0.0,0.019927536231884056,0.020833333333333332,0.024456521739130436
S7_D7 hbo,0.0,0.021384928716904276,0.021384928716904276,0.018329938900203666,0.019348268839103868,0.0,0.021384928716904276,0.021384928716904276,0.023421588594704685,0.019348268839103868,0.021384928716904276,0.020366598778004074,0.02240325865580448,0.023421588594704685,0.023421588594704685,0.0,0.021384928716904276,0.021384928716904276,0.018329938900203666,0.021384928716904276,0.021384928716904276,0.021384928716904276,0.020366598778004074,0.020366598778004074,0.019348268839103868,0.019348268839103868,0.020366598778004074,0.019348268839103868,0.021384928716904276,0.020366598778004074,0.02240325865580448,0.019348268839103868,0.021384928716904276,0.020366598778004074,0.019348268839103868,0.021384928716904276,0.021384928716904276,0.021384928716904276,0.021384928716904276,0.019348268839103868,0.020366598778004074,0.021384928716904276,0.021384928716904276,0.019348268839103868,0.021384928716904276,0.021384928716904276,0.019348268839103868,0.021384928716904276,0.0,0.021384928716904276,0.02240325865580448,0.019348268839103868
S7_D8 hbo,0.0,0.018165304268846504,0.01907356948228883,0.018165304268846504,0.01907356948228883,0.0,0.018165304268846504,0.023614895549500452,0.02089009990917348,0.01907356948228883,0.022706630336058128,0.023614895549500452,0.021798365122615803,0.019981834695731154,0.019981834695731154,0.0,0.023614895549500452,0.02089009990917348,0.021798365122615803,0.023614895549500452,0.02089009990917348,0.019981834695731154,0.023614895549500452,0.022706630336058128,0.01907356948228883,0.021798365122615803,0.01907356948228883,0.02089009990917348,0.019981834695731154,0.018165304268846504,0.02089009990917348,0.021798365122615803,0.02089009990917348,0.019981834695731154,0.021798365122615803,0.02089009990917348,0.02089009990917348,0.02089009990917348,0.019981834695731154,0.021798365122615803,0.021798365122615803,0.021798365122615803,0.02089009990917348,0.02089009990917348,0.02089009990917348,0.02089009990917348,0.02089009990917348,0.02089009990917348,0.0,0.02089009990917348,0.02089009990917348,0.01907356948228883
S8_D6 hbo,0.0,0.01910299003322259,0.01744186046511628,0.016611295681063124,0.01744186046511628,0.0,0.019933554817275746,0.022425249169435217,0.01910299003322259,0.01910299003322259,0.02159468438538206,0.027408637873754152,0.022425249169435217,0.018272425249169437,0.018272425249169437,0.0,0.02408637873754153,0.01910299003322259,0.024916943521594685,0.024916943521594685,0.01910299003322259,0.018272425249169437,0.023255813953488372,0.02574750830564784,0.01744186046511628,0.02574750830564784,0.019933554817275746,0.023255813953488372,0.02159468438538206,0.016611295681063124,0.019933554817275746,0.022425249169435217,0.019933554817275746,0.018272425249169437,0.02408637873754153,0.022425249169435217,0.019933554817275746,0.019933554817275746,0.018272425249169437,0.02408637873754153,0.02408637873754153,0.020764119601328904,0.022425249169435217,0.02159468438538206,0.019933554817275746,0.01910299003322259,0.02159468438538206,0.019933554817275746,0.0,0.019933554817275746,0.019933554817275746,0.018272425249169437
S8_D8 hbo,0.005045408678102927,0.01917255297679112,0.02119071644803229,0.01917255297679112,0.01917255297679112,0.0,0.01917255297679112,0.020181634712411706,0.02119071644803229,0.020181634712411706,0.020181634712411706,0.01917255297679112,0.020181634712411706,0.025227043390514632,0.020181634712411706,0.0,0.020181634712411706,0.020181634712411706,0.017154389505549948,0.020181634712411706,0.025227043390514632,0.020181634712411706,0.01917255297679112,0.01917255297679112,0.02320887991927346,0.018163471241170535,0.020181634712411706,0.018163471241170535,0.020181634712411706,0.024217961654894045,0.02119071644803229,0.018163471241170535,0.024217961654894045,0.01917255297679112,0.018163471241170535,0.020181634712411706,0.020181634712411706,0.025227043390514632,0.020181634712411706,0.018163471241170535,0.01917255297679112,0.020181634712411706,0.024217961654894045,0.018163471241170535,0.025227043390514632,0.025227043390514632,0.018163471241170535,0.025227043390514632,0.0,0.020181634712411706,0.02119071644803229,0.02320887991927346
S8_D15 hbo,0.0,0.020168067226890758,0.01764705882352941,0.01680672268907563,0.01764705882352941,0.0,0.020168067226890758,0.0226890756302521,0.018487394957983194,0.019327731092436976,0.021848739495798318,0.02689075630252101,0.021848739495798318,0.01764705882352941,0.01764705882352941,0.0,0.024369747899159664,0.019327731092436976,0.024369747899159664,0.025210084033613446,0.019327731092436976,0.018487394957983194,0.023529411764705882,0.025210084033613446,0.01764705882352941,0.025210084033613446,0.020168067226890758,0.0226890756302521,0.02100840336134454,0.01680672268907563,0.020168067226890758,0.021848739495798318,0.020168067226890758,0.018487394957983194,0.023529411764705882,0.0226890756302521,0.020168067226890758,0.020168067226890758,0.018487394957983194,0.023529411764705882,0.024369747899159664,0.02100840336134454,0.0226890756302521,0.02100840336134454,0.020168067226890758,0.019327731092436976,0.02100840336134454,0.020168067226890758,0.0,0.020168067226890758,0.020168067226890758,0.018487394957983194
S9_D2 hbo,0.0,0.023109243697478993,0.02100840336134454,0.018907563025210083,0.018907563025210083,0.0,0.02415966386554622,0.01995798319327731,0.022058823529411766,0.022058823529411766,0.01995798319327731,0.023109243697478993,0.02415966386554622,0.022058823529411766,0.022058823529411766,0.0,0.02100840336134454,0.01995798319327731,0.01995798319327731,0.023109243697478993,0.01995798319327731,0.01995798319327731,0.018907563025210083,0.022058823529411766,0.018907563025210083,0.022058823529411766,0.02415966386554622,0.01995798319327731,0.0273109243697479,0.01995798319327731,0.02100840336134454,0.017857142857142856,0.01995798319327731,0.018907563025210083,0.01995798319327731,0.023109243697478993,0.01995798319327731,0.01995798319327731,0.01995798319327731,0.01995798319327731,0.023109243697478993,0.01995798319327731,0.023109243697478993,0.017857142857142856,0.01995798319327731,0.01995798319327731,0.017857142857142856,0.01995798319327731,0.0,0.01995798319327731,0.02100840336134454,0.017857142857142856
S9_D9 hbo,0.0,0.018134715025906734,0.018134715025906734,0.017271157167530225,0.018134715025906734,0.0,0.018998272884283247,0.02158894645941278,0.018134715025906734,0.019861830742659757,0.02158894645941278,0.02677029360967185,0.02072538860103627,0.017271157167530225,0.017271157167530225,0.0,0.024179620034542316,0.018998272884283247,0.025906735751295335,0.025043177892918825,0.018998272884283247,0.018134715025906734,0.022452504317789293,0.027633851468048358,0.018134715025906734,0.025906735751295335,0.02158894645941278,0.025043177892918825,0.02072538860103627,0.017271157167530225,0.019861830742659757,0.022452504317789293,0.019861830742659757,0.018134715025906734,0.025043177892918825,0.02158894645941278,0.019861830742659757,0.019861830742659757,0.018134715025906734,0.025906735751295335,0.023316062176165803,0.02072538860103627,0.02158894645941278,0.02158894645941278,0.019861830742659757,0.018998272884283247,0.02158894645941278,0.019861830742659757,0.0,0.019861830742659757,0.019861830742659757,0.018134715025906734
S9_D11 hbo,0.0,0.024390243902439025,0.021208907741251327,0.019088016967126194,0.019088016967126194,0.0,0.02332979851537646,0.02014846235418876,0.022269353128313893,0.022269353128313893,0.02014846235418876,0.022269353128313893,0.024390243902439025,0.022269353128313893,0.022269353128313893,0.0,0.021208907741251327,0.02014846235418876,0.019088016967126194,0.022269353128313893,0.02014846235418876,0.02014846235418876,0.019088016967126194,0.021208907741251327,0.019088016967126194,0.021208907741251327,0.024390243902439025,0.019088016967126194,0.027571580063626724,0.02014846235418876,0.021208907741251327,0.018027571580063628,0.02014846235418876,0.019088016967126194,0.019088016967126194,0.02332979851537646,0.02014846235418876,0.02014846235418876,0.02014846235418876,0.019088016967126194,0.022269353128313893,0.02014846235418876,0.02332979851537646,0.018027571580063628,0.02014846235418876,0.02014846235418876,0.018027571580063628,0.02014846235418876,0.0,0.02014846235418876,0.021208907741251327,0.018027571580063628
S10_D9 hbo,0.007438894792773645,0.020191285866099893,0.020191285866099893,0.018065887353878853,0.018065887353878853,0.0,0.019128586609989374,0.019128586609989374,0.021253985122210415,0.019128586609989374,0.019128586609989374,0.018065887353878853,0.020191285866099893,0.02975557917109458,0.021253985122210415,0.0,0.019128586609989374,0.019128586609989374,0.015940488841657812,0.019128586609989374,0.028692879914984058,0.019128586609989374,0.018065887353878853,0.018065887353878853,0.023379383634431455,0.01700318809776833,0.019128586609989374,0.01700318809776833,0.020191285866099893,0.02975557917109458,0.020191285866099893,0.01700318809776833,0.024442082890541977,0.018065887353878853,0.01700318809776833,0.019128586609989374,0.019128586609989374,0.028692879914984058,0.019128586609989374,0.01700318809776833,0.018065887353878853,0.019128586609989374,0.025504782146652496,0.01700318809776833,0.028692879914984058,0.028692879914984058,0.01700318809776833,0.026567481402763018,0.0,0.019128586609989374,0.020191285866099893,0.025504782146652496
S10_D10 hbo,0.0,0.019569471624266144,0.021526418786692758,0.019569471624266144,0.02054794520547945,0.0,0.019569471624266144,0.021526418786692758,0.022504892367906065,0.02054794520547945,0.021526418786692758,0.02054794520547945,0.022504892367906065,0.021526418786692758,0.021526418786692758,0.0,0.021526418786692758,0.021526418786692758,0.018590998043052837,0.021526418786692758,0.021526418786692758,0.02054794520547945,0.02054794520547945,0.02054794520547945,0.02054794520547945,0.019569471624266144,0.02054794520547945,0.019569471624266144,0.021526418786692758,0.019569471624266144,0.022504892367906065,0.019569471624266144,0.021526418786692758,0.02054794520547945,0.019569471624266144,0.021526418786692758,0.021526418786692758,0.021526418786692758,0.02054794520547945,0.019569471624266144,0.02054794520547945,0.021526418786692758,0.021526418786692758,0.019569471624266144,0.021526418786692758,0.021526418786692758,0.019569471624266144,0.021526418786692758,0.0,0.021526418786692758,0.022504892367906065,0.019569471624266144
S10_D12 hbo,0.0,0.017391304347826087,0.018260869565217393,0.017391304347826087,0.018260869565217393,0.0,0.017391304347826087,0.023478260869565216,0.019130434782608695,0.018260869565217393,0.022608695652173914,0.025217391304347827,0.02,0.018260869565217393,0.018260869565217393,0.0,0.02434782608695652,0.02,0.023478260869565216,0.023478260869565216,0.02,0.019130434782608695,0.02434782608695652,0.02434782608695652,0.018260869565217393,0.023478260869565216,0.018260869565217393,0.022608695652173914,0.018260869565217393,0.017391304347826087,0.020869565217391306,0.023478260869565216,0.020869565217391306,0.019130434782608695,0.023478260869565216,0.020869565217391306,0.021739130434782608,0.021739130434782608,0.019130434782608695,0.023478260869565216,0.021739130434782608,0.021739130434782608,0.020869565217391306,0.022608695652173914,0.020869565217391306,0.02,0.022608695652173914,0.021739130434782608,0.0,0.021739130434782608,0.020869565217391306,0.019130434782608695
S11_D9 hbo,0.003714020427112349,0.018570102135561744,0.02042711234911792,0.018570102135561744,0.019498607242339833,0.0,0.018570102135561744,0.02042711234911792,0.02135561745589601,0.019498607242339833,0.02042711234911792,0.019498607242339833,0.02135561745589601,0.025069637883008356,0.02042711234911792,0.0,0.02042711234911792,0.02042711234911792,0.017641597028783658,0.02042711234911792,0.025069637883008356,0.019498607242339833,0.019498607242339833,0.019498607242339833,0.02135561745589601,0.018570102135561744,0.019498607242339833,0.018570102135561744,0.02042711234911792,0.02321262766945218,0.02135561745589601,0.018570102135561744,0.02414113277623027,0.019498607242339833,0.018570102135561744,0.02042711234911792,0.02042711234911792,0.025069637883008356,0.019498607242339833,0.018570102135561744,0.019498607242339833,0.02042711234911792,0.025069637883008356,0.018570102135561744,0.025069637883008356,0.025069637883008356,0.018570102135561744,0.025069637883008356,0.0,0.02042711234911792,0.02135561745589601,0.02321262766945218
S11_D11 hbo,0.0,0.019447287615148412,0.021494370522006142,0.019447287615148412,0.02047082906857728,0.0,0.019447287615148412,0.021494370522006142,0.022517911975435005,0.02047082906857728,0.021494370522006142,0.02047082906857728,0.022517911975435005,0.021494370522006142,0.021494370522006142,0.0,0.021494370522006142,0.021494370522006142,0.01842374616171955,0.021494370522006142,0.021494370522006142,0.021494370522006142,0.02047082906857728,0.02047082906857728,0.02047082906857728,0.019447287615148412,0.021494370522006142,0.019447287615148412,0.022517911975435005,0.02047082906857728,0.021494370522006142,0.019447287615148412,0.021494370522006142,0.02047082906857728,0.019447287615148412,0.021494370522006142,0.021494370522006142,0.021494370522006142,0.021494370522006142,0.019447287615148412,0.02047082906857728,0.021494370522006142,0.021494370522006142,0.019447287615148412,0.021494370522006142,0.021494370522006142,0.019447287615148412,0.021494370522006142,0.0,0.021494370522006142,0.021494370522006142,0.019447287615148412
S11_D12 hbo,0.0,0.018456375838926176,0.01761744966442953,0.016778523489932886,0.01761744966442953,0.0,0.018456375838926176,0.022651006711409395,0.018456375838926176,0.01929530201342282,0.02181208053691275,0.026845637583892617,0.02097315436241611,0.01761744966442953,0.01761744966442953,0.0,0.024328859060402684,0.01929530201342282,0.025167785234899327,0.024328859060402684,0.01929530201342282,0.018456375838926176,0.02348993288590604,0.026006711409395974,0.01761744966442953,0.025167785234899327,0.01929530201342282,0.02348993288590604,0.01929530201342282,0.016778523489932886,0.020134228187919462,0.02348993288590604,0.020134228187919462,0.018456375838926176,0.024328859060402684,0.02181208053691275,0.02097315436241611,0.02097315436241611,0.018456375838926176,0.024328859060402684,0.022651006711409395,0.02097315436241611,0.02181208053691275,0.022651006711409395,0.020134228187919462,0.01929530201342282,0.022651006711409395,0.02097315436241611,0.0,0.02097315436241611,0.020134228187919462,0.018456375838926176
S11_D13 hbo,0.0,0.022099447513812154,0.020257826887661142,0.01841620626151013,0.019337016574585635,0.0,0.02117863720073665,0.02117863720073665,0.022099447513812154,0.020257826887661142,0.02117863720073665,0.022099447513812154,0.02394106813996317,0.02117863720073665,0.02117863720073665,0.0,0.02117863720073665,0.02117863720073665,0.019337016574585635,0.022099447513812154,0.02117863720073665,0.020257826887661142,0.020257826887661142,0.02117863720073665,0.019337016574585635,0.02117863720073665,0.020257826887661142,0.019337016574585635,0.022099447513812154,0.01841620626151013,0.022099447513812154,0.019337016574585635,0.02117863720073665,0.020257826887661142,0.019337016574585635,0.02302025782688766,0.02117863720073665,0.02117863720073665,0.020257826887661142,0.019337016574585635,0.022099447513812154,0.02117863720073665,0.02302025782688766,0.019337016574585635,0.02117863720073665,0.02117863720073665,0.019337016574585635,0.02117863720073665,0.0,0.02117863720073665,0.022099447513812154,0.019337016574585635
S12_D10 hbo,0.0,0.01904761904761905,0.02095238095238095,0.01904761904761905,0.02,0.0,0.01904761904761905,0.021904761904761906,0.021904761904761906,0.02,0.021904761904761906,0.02095238095238095,0.021904761904761906,0.02095238095238095,0.02095238095238095,0.0,0.021904761904761906,0.02095238095238095,0.01904761904761905,0.021904761904761906,0.02095238095238095,0.02,0.02095238095238095,0.02095238095238095,0.02,0.02,0.02,0.02,0.02095238095238095,0.01904761904761905,0.022857142857142857,0.02,0.021904761904761906,0.02,0.02,0.021904761904761906,0.021904761904761906,0.021904761904761906,0.02,0.02,0.02095238095238095,0.021904761904761906,0.021904761904761906,0.02,0.021904761904761906,0.02095238095238095,0.02,0.021904761904761906,0.0,0.021904761904761906,0.022857142857142857,0.02
S12_D12 hbo,0.006151142355008787,0.01757469244288225,0.019332161687170474,0.01757469244288225,0.01845342706502636,0.0,0.01757469244288225,0.020210896309314587,0.020210896309314587,0.01845342706502636,0.020210896309314587,0.019332161687170474,0.020210896309314587,0.026362038664323375,0.019332161687170474,0.0,0.020210896309314587,0.019332161687170474,0.01757469244288225,0.020210896309314587,0.027240773286467488,0.01845342706502636,0.019332161687170474,0.019332161687170474,0.022847100175746926,0.01845342706502636,0.01845342706502636,0.01845342706502636,0.019332161687170474,0.025483304042179262,0.0210896309314587,0.01845342706502636,0.02460456942003515,0.01845342706502636,0.01845342706502636,0.020210896309314587,0.020210896309314587,0.027240773286467488,0.01845342706502636,0.01845342706502636,0.019332161687170474,0.020210896309314587,0.025483304042179262,0.01845342706502636,0.027240773286467488,0.026362038664323375,0.01845342706502636,0.026362038664323375,0.0,0.020210896309314587,0.0210896309314587,0.025483304042179262
S12_D14 hbo,0.0,0.021231422505307854,0.022292993630573247,0.01910828025477707,0.020169851380042462,0.0,0.021231422505307854,0.021231422505307854,0.02335456475583864,0.020169851380042462,0.021231422505307854,0.020169851380042462,0.022292993630573247,0.02335456475583864,0.02335456475583864,0.0,0.021231422505307854,0.021231422505307854,0.018046709129511677,0.021231422505307854,0.021231422505307854,0.021231422505307854,0.020169851380042462,0.020169851380042462,0.020169851380042462,0.01910828025477707,0.021231422505307854,0.01910828025477707,0.022292993630573247,0.021231422505307854,0.022292993630573247,0.01910828025477707,0.021231422505307854,0.020169851380042462,0.01910828025477707,0.021231422505307854,0.021231422505307854,0.021231422505307854,0.021231422505307854,0.01910828025477707,0.020169851380042462,0.021231422505307854,0.021231422505307854,0.01910828025477707,0.021231422505307854,0.021231422505307854,0.01910828025477707,0.021231422505307854,0.0,0.021231422505307854,0.022292993630573247,0.01910828025477707
S13_D6 hbo,0.0,0.018487394957983194,0.01764705882352941,0.01680672268907563,0.01764705882352941,0.0,0.019327731092436976,0.0226890756302521,0.018487394957983194,0.019327731092436976,0.021848739495798318,0.02689075630252101,0.02100840336134454,0.01764705882352941,0.01764705882352941,0.0,0.024369747899159664,0.019327731092436976,0.025210084033613446,0.025210084033613446,0.019327731092436976,0.018487394957983194,0.023529411764705882,0.026050420168067228,0.01764705882352941,0.025210084033613446,0.020168067226890758,0.023529411764705882,0.020168067226890758,0.01680672268907563,0.020168067226890758,0.0226890756302521,0.020168067226890758,0.018487394957983194,0.024369747899159664,0.021848739495798318,0.020168067226890758,0.020168067226890758,0.018487394957983194,0.024369747899159664,0.023529411764705882,0.02100840336134454,0.021848739495798318,0.021848739495798318,0.020168067226890758,0.019327731092436976,0.021848739495798318,0.020168067226890758,0.0,0.020168067226890758,0.020168067226890758,0.018487394957983194
S13_D11 hbo,0.0,0.021333333333333333,0.018666666666666668,0.017777777777777778,0.018666666666666668,0.0,0.020444444444444446,0.022222222222222223,0.020444444444444446,0.020444444444444446,0.022222222222222223,0.024,0.024,0.019555555555555555,0.019555555555555555,0.0,0.02311111111111111,0.020444444444444446,0.021333333333333333,0.024,0.020444444444444446,0.019555555555555555,0.021333333333333333,0.02311111111111111,0.018666666666666668,0.02311111111111111,0.020444444444444446,0.020444444444444446,0.022222222222222223,0.017777777777777778,0.020444444444444446,0.020444444444444446,0.020444444444444446,0.019555555555555555,0.021333333333333333,0.02311111111111111,0.020444444444444446,0.020444444444444446,0.019555555555555555,0.021333333333333333,0.02311111111111111,0.021333333333333333,0.02311111111111111,0.019555555555555555,0.020444444444444446,0.020444444444444446,0.019555555555555555,0.020444444444444446,0.0,0.020444444444444446,0.020444444444444446,0.018666666666666668
S13_D13 hbo,0.0,0.019553072625698324,0.020484171322160148,0.0186219739292365,0.019553072625698324,0.0,0.019553072625698324,0.0223463687150838,0.0223463687150838,0.019553072625698324,0.0223463687150838,0.021415270018621976,0.0223463687150838,0.021415270018621976,0.021415270018621976,0.0,0.0223463687150838,0.021415270018621976,0.019553072625698324,0.0223463687150838,0.021415270018621976,0.020484171322160148,0.021415270018621976,0.021415270018621976,0.019553072625698324,0.020484171322160148,0.019553072625698324,0.019553072625698324,0.020484171322160148,0.0186219739292365,0.0223463687150838,0.020484171322160148,0.021415270018621976,0.020484171322160148,0.020484171322160148,0.021415270018621976,0.021415270018621976,0.021415270018621976,0.020484171322160148,0.020484171322160148,0.020484171322160148,0.021415270018621976,0.021415270018621976,0.019553072625698324,0.021415270018621976,0.021415270018621976,0.019553072625698324,0.021415270018621976,0.0,0.021415270018621976,0.0223463687150838,0.019553072625698324
S13_D15 hbo,0.003499562554680665,0.02099737532808399,0.019247594050743656,0.017497812773403325,0.01837270341207349,0.0,0.020122484689413824,0.020122484689413824,0.02099737532808399,0.019247594050743656,0.020122484689413824,0.02099737532808399,0.022747156605424323,0.024496937882764653,0.020122484689413824,0.0,0.020122484689413824,0.020122484689413824,0.01837270341207349,0.02099737532808399,0.02537182852143482,0.019247594050743656,0.019247594050743656,0.020122484689413824,0.020122484689413824,0.020122484689413824,0.019247594050743656,0.01837270341207349,0.02099737532808399,0.022747156605424323,0.02099737532808399,0.01837270341207349,0.023622047244094488,0.019247594050743656,0.01837270341207349,0.021872265966754154,0.020122484689413824,0.024496937882764653,0.019247594050743656,0.01837270341207349,0.02099737532808399,0.020122484689413824,0.026246719160104987,0.01837270341207349,0.024496937882764653,0.024496937882764653,0.01837270341207349,0.024496937882764653,0.0,0.020122484689413824,0.02099737532808399,0.022747156605424323
S14_D12 hbo,0.0,0.0176678445229682,0.018551236749116608,0.0176678445229682,0.018551236749116608,0.0,0.0176678445229682,0.022968197879858657,0.019434628975265017,0.018551236749116608,0.022968197879858657,0.023851590106007067,0.020318021201413426,0.018551236749116608,0.018551236749116608,0.0,0.024734982332155476,0.020318021201413426,0.022084805653710248,0.023851590106007067,0.020318021201413426,0.019434628975265017,0.023851590106007067,0.023851590106007067,0.018551236749116608,0.022968197879858657,0.018551236749116608,0.022084805653710248,0.018551236749116608,0.0176678445229682,0.02120141342756184,0.022968197879858657,0.02120141342756184,0.019434628975265017,0.022968197879858657,0.02120141342756184,0.02120141342756184,0.02120141342756184,0.019434628975265017,0.022968197879858657,0.022084805653710248,0.022084805653710248,0.02120141342756184,0.022084805653710248,0.02120141342756184,0.020318021201413426,0.022084805653710248,0.02120141342756184,0.0,0.02120141342756184,0.02120141342756184,0.019434628975265017
S14_D13 hbo,0.006306306306306306,0.018018018018018018,0.01981981981981982,0.018018018018018018,0.01891891891891892,0.0,0.018018018018018018,0.01981981981981982,0.02072072072072072,0.01891891891891892,0.01981981981981982,0.01891891891891892,0.02072072072072072,0.02702702702702703,0.01981981981981982,0.0,0.01981981981981982,0.01981981981981982,0.017117117117117116,0.01981981981981982,0.027927927927927927,0.01891891891891892,0.01891891891891892,0.01891891891891892,0.023423423423423424,0.018018018018018018,0.01891891891891892,0.018018018018018018,0.01981981981981982,0.026126126126126126,0.02072072072072072,0.018018018018018018,0.024324324324324326,0.01891891891891892,0.018018018018018018,0.01981981981981982,0.01981981981981982,0.02702702702702703,0.01891891891891892,0.018018018018018018,0.01891891891891892,0.01981981981981982,0.025225225225225224,0.018018018018018018,0.02702702702702703,0.02702702702702703,0.018018018018018018,0.026126126126126126,0.0,0.01981981981981982,0.02072072072072072,0.025225225225225224
S14_D14 hbo,0.0065237651444548,0.01863932898415657,0.02050326188257223,0.017707362534948742,0.01863932898415657,0.0,0.01863932898415657,0.0195712954333644,0.021435228331780055,0.01863932898415657,0.0195712954333644,0.01863932898415657,0.02050326188257223,0.027958993476234855,0.02050326188257223,0.0,0.0195712954333644,0.0195712954333644,0.016775396085740912,0.0195712954333644,0.027958993476234855,0.0195712954333644,0.01863932898415657,0.01863932898415657,0.023299161230195712,0.017707362534948742,0.0195712954333644,0.017707362534948742,0.02050326188257223,0.02702702702702703,0.02050326188257223,0.017707362534948742,0.024231127679403542,0.01863932898415657,0.017707362534948742,0.0195712954333644,0.0195712954333644,0.02702702702702703,0.0195712954333644,0.017707362534948742,0.01863932898415657,0.0195712954333644,0.02516309412861137,0.017707362534948742,0.02702702702702703,0.02702702702702703,0.017707362534948742,0.0260950605778192,0.0,0.0195712954333644,0.02050326188257223,0.02516309412861137
S14_D16 hbo,0.0,0.0176678445229682,0.018551236749116608,0.0176678445229682,0.018551236749116608,0.0,0.0176678445229682,0.022968197879858657,0.019434628975265017,0.018551236749116608,0.022968197879858657,0.023851590106007067,0.020318021201413426,0.018551236749116608,0.018551236749116608,0.0,0.024734982332155476,0.020318021201413426,0.022084805653710248,0.023851590106007067,0.020318021201413426,0.019434628975265017,0.023851590106007067,0.023851590106007067,0.018551236749116608,0.022968197879858657,0.018551236749116608,0.022084805653710248,0.018551236749116608,0.0176678445229682,0.02120141342756184,0.022968197879858657,0.02120141342756184,0.019434628975265017,0.022968197879858657,0.02120141342756184,0.02120141342756184,0.02120141342756184,0.019434628975265017,0.022968197879858657,0.022084805653710248,0.022084805653710248,0.02120141342756184,0.022084805653710248,0.02120141342756184,0.020318021201413426,0.022084805653710248,0.02120141342756184,0.0,0.02120141342756184,0.02120141342756184,0.019434628975265017
S15_D13 hbo,0.004468275245755138,0.017873100983020553,0.01966041108132261,0.017873100983020553,0.01876675603217158,0.0,0.017873100983020553,0.020554066130473638,0.020554066130473638,0.01876675603217158,0.020554066130473638,0.01966041108132261,0.020554066130473638,0.025022341376228777,0.01966041108132261,0.0,0.020554066130473638,0.01966041108132261,0.017873100983020553,0.020554066130473638,0.025915996425379804,0.01876675603217158,0.01966041108132261,0.01966041108132261,0.021447721179624665,0.01876675603217158,0.01876675603217158,0.01876675603217158,0.01966041108132261,0.024128686327077747,0.021447721179624665,0.01876675603217158,0.025022341376228777,0.01876675603217158,0.01876675603217158,0.020554066130473638,0.020554066130473638,0.025915996425379804,0.01876675603217158,0.01876675603217158,0.01966041108132261,0.020554066130473638,0.025915996425379804,0.01876675603217158,0.025915996425379804,0.025022341376228777,0.01876675603217158,0.025915996425379804,0.0,0.020554066130473638,0.021447721179624665,0.024128686327077747
S15_D15 hbo,0.14414414414414414,0.0,0.0,0.07207207207207207,0.06306306306306306,0.11711711711711711,0.0,0.0,0.0,0.018018018018018018,0.0,0.0,0.0,0.0,0.05405405405405406,0.1981981981981982,0.0,0.0,0.0,0.0,0.0,0.0,0.0,0.0,0.0,0.0,0.0,0.0,0.0,0.0,0.0,0.0,0.0,0.0,0.0,0.0,0.0,0.0,0.0,0.0,0.0,0.0,0.0,0.0,0.0,0.0,0.0,0.0,0.2702702702702703,0.0,0.06306306306306306,0.0
S15_D16 hbo,0.0,0.01926605504587156,0.02018348623853211,0.01834862385321101,0.01926605504587156,0.0,0.01926605504587156,0.022018348623853212,0.022018348623853212,0.01926605504587156,0.022018348623853212,0.02110091743119266,0.022018348623853212,0.02110091743119266,0.02110091743119266,0.0,0.022018348623853212,0.02110091743119266,0.01926605504587156,0.022018348623853212,0.02110091743119266,0.02018348623853211,0.02110091743119266,0.02110091743119266,0.01926605504587156,0.02018348623853211,0.01926605504587156,0.02018348623853211,0.02018348623853211,0.01834862385321101,0.022935779816513763,0.02018348623853211,0.022018348623853212,0.02018348623853211,0.02018348623853211,0.022018348623853212,0.022018348623853212,0.022018348623853212,0.02018348623853211,0.02018348623853211,0.02110091743119266,0.022018348623853212,0.022018348623853212,0.02018348623853211,0.022018348623853212,0.02110091743119266,0.02018348623853211,0.022018348623853212,0.0,0.022018348623853212,0.022935779816513763,0.02018348623853211
S16_D14 hbo,0.0,0.01858736059479554,0.020446096654275093,0.026022304832713755,0.026022304832713755,0.007434944237918215,0.01858736059479554,0.020446096654275093,0.02137546468401487,0.02137546468401487,0.020446096654275093,0.019516728624535316,0.02137546468401487,0.020446096654275093,0.026022304832713755,0.007434944237918215,0.020446096654275093,0.020446096654275093,0.017657992565055763,0.020446096654275093,0.020446096654275093,0.019516728624535316,0.019516728624535316,0.019516728624535316,0.019516728624535316,0.01858736059479554,0.019516728624535316,0.01858736059479554,0.020446096654275093,0.01858736059479554,0.02137546468401487,0.01858736059479554,0.020446096654275093,0.019516728624535316,0.01858736059479554,0.020446096654275093,0.020446096654275093,0.020446096654275093,0.019516728624535316,0.01858736059479554,0.019516728624535316,0.020446096654275093,0.020446096654275093,0.01858736059479554,0.020446096654275093,0.020446096654275093,0.01858736059479554,0.020446096654275093,0.007434944237918215,0.020446096654275093,0.027881040892193308,0.01858736059479554
S16_D16 hbo,0.005319148936170213,0.01773049645390071,0.018617021276595744,0.01773049645390071,0.018617021276595744,0.0,0.01773049645390071,0.020390070921985817,0.01950354609929078,0.018617021276595744,0.020390070921985817,0.01950354609929078,0.020390070921985817,0.024822695035460994,0.018617021276595744,0.0,0.020390070921985817,0.020390070921985817,0.01773049645390071,0.020390070921985817,0.0274822695035461,0.01950354609929078,0.01950354609929078,0.01950354609929078,0.022163120567375887,0.018617021276595744,0.018617021276595744,0.018617021276595744,0.018617021276595744,0.024822695035460994,0.020390070921985817,0.018617021276595744,0.024822695035460994,0.01950354609929078,0.018617021276595744,0.020390070921985817,0.020390070921985817,0.026595744680851064,0.01950354609929078,0.018617021276595744,0.01950354609929078,0.020390070921985817,0.025709219858156027,0.018617021276595744,0.026595744680851064,0.026595744680851064,0.018617021276595744,0.026595744680851064,0.0,0.020390070921985817,0.020390070921985817,0.024822695035460994
