,S1_D1 hbo,S1_D3 hbo,S2_D1 hbo,S2_D2 hbo,S2_D4 hbo,S3_D1 hbo,S3_D3 hbo,S3_D4 hbo,S3_D5 hbo,S4_D2 hbo,S4_D4 hbo,S4_D6 hbo,S4_D11 hbo,S5_D3 hbo,S5_D5 hbo,S5_D7 hbo,S6_D4 hbo,S6_D5 hbo,S6_D6 hbo,S6_D8 hbo,S7_D5 hbo,S7_D7 hbo,S7_D8 hbo,S8_D6 hbo,S8_D8 hbo,S8_D15 hbo,S9_D2 hbo,S9_D9 hbo,S9_D11 hbo,S10_D9 hbo,S10_D10 hbo,S10_D12 hbo,S11_D9 hbo,S11_D11 hbo,S11_D12 hbo,S11_D13 hbo,S12_D10 hbo,S12_D12 hbo,S12_D14 hbo,S13_D6 hbo,S13_D11 hbo,S13_D13 hbo,S13_D15 hbo,S14_D12 hbo,S14_D13 hbo,S14_D14 hbo,S14_D16 hbo,S15_D13 hbo,S15_D15 hbo,S15_D16 hbo,S16_D14 hbo,S16_D16 hbo
S1_D1 hbo,0.07688929496272141,0.028056112224448898,0.0,0.0,0.0,0.04408060453400504,0.06560980903873237,0.0,0.0,0.011022044088176353,0.0,0.0,0.02404809619238477,0.05507488528694669,0.04408060453400504,0.041561712846347604,0.023046092184368736,0.0,0.0,0.027054108216432865,0.0,0.030226700251889168,0.0070140280561122245,0.013026052104208416,0.0,0.0,0.0,0.0,0.021042084168336674,0.03904282115869018,0.06761381705476444,0.06229082850840219,0.005037783375314861,0.0,0.042821158690176324,0.0,0.031062124248496994,0.06707117004790437,0.0,0.023046092184368736,0.02404809619238477,0.0,0.017034068136272545,0.03289198043442048,0.0,0.008816120906801008,0.0,0.027054108216432865,0.026052104208416832,0.013026052104208416,0.0012594458438287153,0.0
S1_D3 hbo,0.014529058116232466,0.031062124248496994,0.0,0.009018036072144289,0.008016032064128256,0.008016032064128256,0.021042084168336674,0.0,0.008016032064128256,0.005511022044088177,0.0,0.0,0.011022044088176353,0.021042084168336674,0.01002004008016032,0.011523046092184368,0.011523046092184368,0.008517034068136272,0.005511022044088177,0.023046092184368736,0.008517034068136272,0.01002004008016032,0.013026052104208416,0.006513026052104208,0.011523046092184368,0.0,0.01002004008016032,0.011523046092184368,0.013527054108216433,0.0,0.01603206412825651,0.013026052104208416,0.008517034068136272,0.0,0.0070140280561122245,0.0,0.015531062124248497,0.014529058116232466,0.001002004008016032,0.02154308617234469,0.02004008016032064,0.0,0.018036072144288578,0.009519038076152305,0.0,0.0,0.011523046092184368,0.015531062124248497,0.01503006012024048,0.01603206412825651,0.0,0.00501002004008016
S2_D1 hbo,0.0,0.0,0.06787443156813848,0.04507848026991345,0.01764705882352941,0.026184538653366583,0.0,0.03385653513275634,0.055053542614053104,0.0,0.0,0.01764705882352941,0.01764705882352941,0.0,0.02369077306733167,0.02493765586034913,0.0058823529411764705,0.011764705882352941,0.01764705882352941,0.0,0.01764705882352941,0.04507848026991345,0.023881472788616694,0.0351034179257738,0.04757224585594837,0.04507848026991345,0.03385653513275634,0.04258471468387854,0.0058823529411764705,0.0012468827930174563,0.004987531172069825,0.003740648379052369,0.01764705882352941,0.01764705882352941,0.0,0.011221945137157107,0.0,0.0,0.02263458999559924,0.03635030071879126,0.01764705882352941,0.023338712043420858,0.04507848026991345,0.01764705882352941,0.0,0.004987531172069825,0.01764705882352941,0.03759718351180871,0.032609652339738886,0.01764705882352941,0.003740648379052369,0.004987531172069825
S2_D2 hbo,0.0,0.011920529801324504,0.016956065256016797,0.09455055726053949,0.03193748990470037,0.022516556291390728,0.011258278145695364,0.006097560975609756,0.045582296882571476,0.0,0.001524390243902439,0.006097560975609756,0.006097560975609756,0.011920529801324504,0.02384105960264901,0.02384105960264901,0.003048780487804878,0.03193748990470037,0.013382329187530287,0.03173760297205621,0.023653287029559038,0.028614117267000486,0.026102406719431433,0.03366176708124698,0.025765223711839768,0.01801809077693426,0.025302858988854787,0.07348368599580035,0.006822403488935551,0.0,0.004635761589403974,0.001986754966887417,0.03717291229203683,0.024390243902439025,0.009271523178807948,0.005960264900662252,0.0,0.0,0.008746567598126313,0.03424931351962526,0.016231222742691002,0.029288483282183815,0.04776893878210305,0.004573170731707317,0.0,0.0026490066225165563,0.03021321272815377,0.014706832498788564,0.034523905669520266,0.02670206751736392,0.001986754966887417,0.009271523178807948
S2_D4 hbo,0.0,0.01951219512195122,0.0024271844660194173,0.03286170968505801,0.06078025100639356,0.018292682926829267,0.01951219512195122,0.010922330097087379,0.0377101586549846,0.0,0.02550319677954061,0.02669902912621359,0.010922330097087379,0.01951219512195122,0.01951219512195122,0.01951219512195122,0.027930381245560028,0.030428605256926353,0.034045702107506515,0.031648117452048305,0.023141131896755863,0.03406938195595548,0.023147051858868103,0.019417475728155338,0.023152971820980348,0.0048543689320388345,0.02557423632488752,0.043784039782145394,0.010969689793985318,0.0,0.0,0.0,0.05227918541321336,0.015776699029126214,0.01707317073170732,0.0,0.0,0.0,0.007281553398058253,0.026787828557897228,0.02191569973952167,0.013349514563106795,0.03406346199384324,0.0036407766990291263,0.0,0.003658536585365854,0.0449976320151551,0.013349514563106795,0.038870471228984134,0.03891783092588208,0.0,0.012195121951219513
S3_D1 hbo,0.04271356783919598,0.011461318051575931,0.01504297994269341,0.024355300859598854,0.010744985673352435,0.0690414824840535,0.05291860448373673,0.0,0.022206303724928367,0.0,0.0,0.0,0.0,0.050406041669666383,0.0690414824840535,0.06850153345524182,0.0,0.010744985673352435,0.007879656160458453,0.011461318051575931,0.01002865329512894,0.05593871938489006,0.014326647564469915,0.01002865329512894,0.022206303724928367,0.01504297994269341,0.02005730659025788,0.024355300859598854,0.0057306590257879654,0.038944723618090454,0.0414572864321608,0.03015075376884422,0.016486443679716634,0.0,0.05274222113432492,0.0064469914040114614,0.0,0.03391959798994975,0.0,0.02148997134670487,0.008595988538681949,0.009312320916905445,0.024355300859598854,0.013819095477386936,0.0,0.008793969849246231,0.011461318051575931,0.01002865329512894,0.009312320916905445,0.01002865329512894,0.001256281407035176,0.0071633237822349575
S3_D3 hbo,0.05660012292003369,0.02242152466367713,0.0,0.010089686098654708,0.008968609865470852,0.05211581798729826,0.06542077348569347,0.0,0.008968609865470852,0.00616591928251121,0.0,0.0,0.01289237668161435,0.05951947372015205,0.05435797045366597,0.05181989938767612,0.011210762331838564,0.008968609865470852,0.00616591928251121,0.02466367713004484,0.00952914798206278,0.040546538890532884,0.014013452914798207,0.0072869955156950675,0.011210762331838564,0.0,0.010089686098654708,0.011210762331838564,0.016255605381165918,0.03934010152284264,0.0519678586874872,0.043909767590084456,0.014605290114042475,0.0,0.050994741754114406,0.0,0.01289237668161435,0.047716874189069225,0.0,0.021860986547085202,0.020739910313901346,0.0,0.01905829596412556,0.0246096150781908,0.0,0.008883248730964468,0.011210762331838564,0.011771300448430493,0.016255605381165918,0.016816143497757848,0.0012690355329949238,0.005605381165919282
S3_D4 hbo,0.0,0.0,0.1668929110105581,0.007692307692307693,0.02564102564102564,0.0,0.0,0.1995475113122172,0.16945701357466064,0.0,0.017948717948717947,0.02564102564102564,0.023076923076923078,0.0,0.0,0.0,0.020512820512820513,0.005128205128205128,0.02564102564102564,0.0,0.010256410256410256,0.02564102564102564,0.007692307692307693,0.007692307692307693,0.007692307692307693,0.010256410256410256,0.015384615384615385,0.020512820512820513,0.002564102564102564,0.0,0.0,0.0,0.02564102564102564,0.007692307692307693,0.0,0.0,0.0,0.0,0.015384615384615385,0.015384615384615385,0.015384615384615385,0.002564102564102564,0.01282051282051282,0.007692307692307693,0.0,0.0,0.02564102564102564,0.02564102564102564,0.02564102564102564,0.02564102564102564,0.0,0.0
S3_D5 hbo,0.0,0.011644832605531296,0.023637904667145725,0.04154920494536879,0.03243601790945774,0.022561863173216887,0.011644832605531296,0.014524717631234686,0.07686510788052991,0.0,0.0012658227848101266,0.005063291139240506,0.005063291139240506,0.011644832605531296,0.023289665211062592,0.023289665211062592,0.002531645569620253,0.034967663479077996,0.013069113555543271,0.04582204779540472,0.025379101947561402,0.027625154312457392,0.024682623035395132,0.03984117332743722,0.042625246439297625,0.0167081237447718,0.023986144123228862,0.047878318869419415,0.007088239087575774,0.0,0.0,0.0,0.03696128830173383,0.021518987341772152,0.010189228529839884,0.006550218340611353,0.012658227848101266,0.0,0.021518987341772152,0.03177086212297091,0.015062738378199103,0.02626536215060896,0.04335304847714333,0.0037974683544303796,0.0,0.0,0.026834706023252816,0.015600759125163524,0.03984117332743722,0.024113279162751276,0.0,0.00727802037845706
S4_D2 hbo,0.022267206477732792,0.022267206477732792,0.0,0.0,0.0,0.0,0.022267206477732792,0.0,0.0,0.23468928732086625,0.0,0.010121457489878543,0.022267206477732792,0.022267206477732792,0.0,0.0,0.022267206477732792,0.0,0.0,0.022267206477732792,0.0,0.0,0.01417004048582996,0.05401323822376454,0.0,0.0,0.0,0.0,0.022267206477732792,0.0,0.022267206477732792,0.022267206477732792,0.0,0.0,0.0,0.010121457489878543,0.022267206477732792,0.022267206477732792,0.0,0.022267206477732792,0.11750530171582803,0.14285714285714285,0.022267206477732792,0.022267206477732792,0.0,0.023809523809523808,0.0,0.022267206477732792,0.022267206477732792,0.01417004048582996,0.0,0.0
S4_D4 hbo,0.0,0.0,0.0,0.0,0.07275280898876405,0.0,0.0,0.014044943820224719,0.0,0.0,0.2397940074906367,0.05056179775280899,0.014044943820224719,0.0,0.0,0.0,0.175561797752809,0.0,0.03651685393258427,0.0,0.0,0.025280898876404494,0.0,0.0,0.0,0.0,0.0056179775280898875,0.011235955056179775,0.0,0.0,0.0,0.0,0.03089887640449438,0.0,0.0,0.0,0.0,0.0,0.03895131086142322,0.0056179775280898875,0.0056179775280898875,0.0,0.0028089887640449437,0.0,0.0,0.10833333333333334,0.03651685393258427,0.019662921348314606,0.025280898876404494,0.03089887640449438,0.03333333333333333,0.016666666666666666
S4_D6 hbo,0.0,0.0,0.0036101083032490976,0.005415162454873646,0.03790613718411552,0.0,0.0,0.016245487364620937,0.005415162454873646,0.06097560975609756,0.032490974729241874,0.2872237386633794,0.016245487364620937,0.0,0.0,0.0,0.04151624548736462,0.0036101083032490976,0.030685920577617327,0.0,0.007220216606498195,0.023465703971119134,0.005415162454873646,0.005415162454873646,0.005415162454873646,0.007220216606498195,0.010830324909747292,0.01444043321299639,0.0018050541516245488,0.0,0.0,0.0,0.02707581227436823,0.005415162454873646,0.0,0.1951219512195122,0.0,0.0,0.010830324909747292,0.010830324909747292,0.010830324909747292,0.0018050541516245488,0.009025270758122744,0.005415162454873646,0.0,0.0,0.030685920577617327,0.019855595667870037,0.023465703971119134,0.02707581227436823,0.0,0.0
S4_D11 hbo,0.02823529411764706,0.023529411764705882,0.0040650406504065045,0.006097560975609756,0.02032520325203252,0.0,0.027058823529411764,0.018292682926829267,0.006097560975609756,0.012941176470588235,0.014227642276422764,0.02032520325203252,0.08193687230989957,0.018823529411764704,0.0,0.0,0.039789574366331903,0.0040650406504065045,0.02032520325203252,0.02823529411764706,0.008130081300813009,0.02032520325203252,0.014332855093256816,0.02139167862266858,0.006097560975609756,0.008130081300813009,0.012195121951219513,0.016260162601626018,0.06332376853180297,0.0,0.021176470588235293,0.02823529411764706,0.02032520325203252,0.036585365853658534,0.0,0.0,0.027058823529411764,0.02823529411764706,0.012195121951219513,0.036901004304160684,0.038077474892395984,0.0020325203252032522,0.03016260162601626,0.028450502152080344,0.0,0.0,0.02032520325203252,0.04267814442850311,0.04738402678144428,0.035619320899091346,0.0,0.0
S5_D3 hbo,0.05159608271277029,0.024466750313676285,0.0,0.011292346298619825,0.010037641154328732,0.05159608271277029,0.06351578158353566,0.0,0.010037641154328732,0.007572227020156757,0.0,0.0,0.010037641154328732,0.06535384314556208,0.05410549300135248,0.05276279554824097,0.00878293601003764,0.011292346298619825,0.006900878293601004,0.02258469259723965,0.01066499372647428,0.042461177467451,0.015683814303638646,0.008199579592302303,0.013174404015056462,0.0,0.011292346298619825,0.013801756587202008,0.015056461731493099,0.04025974025974026,0.05222343528491584,0.0412064723231599,0.015859798921279474,0.0,0.0503413775684792,0.0,0.011292346298619825,0.04510257621926379,0.0012547051442910915,0.02070263488080301,0.01944792973651192,0.0,0.01756587202007528,0.022441297723606382,0.0,0.01038961038961039,0.013801756587202008,0.009410288582183186,0.013801756587202008,0.015056461731493099,0.0012987012987012987,0.006273525721455458
S5_D5 hbo,0.04271356783919598,0.013031550068587106,0.013031550068587106,0.023319615912208505,0.010973936899862825,0.06728946515843967,0.05380296544450648,0.0,0.02194787379972565,0.0,0.0,0.0,0.0,0.052662144742918984,0.06934707832716394,0.06877666797637019,0.0,0.011659807956104253,0.0075445816186556925,0.013031550068587106,0.010973936899862825,0.054842111793535576,0.015089163237311385,0.009602194787379973,0.02263374485596708,0.013031550068587106,0.019890260631001373,0.024691358024691357,0.0054869684499314125,0.038944723618090454,0.0414572864321608,0.03015075376884422,0.016684933584244957,0.0,0.05231576262657595,0.006172839506172839,0.0,0.03391959798994975,0.0,0.021262002743484224,0.009602194787379973,0.0075445816186556925,0.023319615912208505,0.013819095477386936,0.0,0.008793969849246231,0.013717421124828532,0.008916323731138546,0.008916323731138546,0.010973936899862825,0.001256281407035176,0.006858710562414266
S5_D7 hbo,0.03994845360824742,0.013409961685823755,0.014060051875551344,0.023638595936854023,0.011505773459203962,0.06358704954510144,0.0514311858961699,0.001288659793814433,0.021722887124593488,0.0,0.0,0.001288659793814433,0.001288659793814433,0.05013100551671472,0.06614132796144882,0.07127292596542507,0.0,0.012782912667377652,0.008312925438769733,0.013409961685823755,0.012144343063290807,0.057120709404747796,0.016614330291898724,0.01022863425103027,0.02427716554094087,0.014060051875551344,0.021722887124593488,0.026831443957288252,0.006397216626509197,0.03608247422680412,0.03865979381443299,0.027061855670103094,0.013433002857105239,0.001288659793814433,0.04888842806546326,0.005747126436781609,0.0,0.030927835051546393,0.001288659793814433,0.023000026332767178,0.011505773459203962,0.008951495042856578,0.024915735145027713,0.011597938144329897,0.0,0.005154639175257732,0.016614330291898724,0.011505773459203962,0.009590064646943425,0.012782912667377652,0.0,0.006385696040868455
S6_D4 hbo,0.023858921161825725,0.022821576763485476,0.0,0.0,0.046590294064585966,0.0,0.022821576763485476,0.014492753623188406,0.0,0.011410788381742738,0.06111311564134945,0.050724637681159424,0.03731433038667388,0.016597510373443983,0.0,0.0,0.13086575660993846,0.0,0.033816425120772944,0.023858921161825725,0.0024154589371980675,0.024154589371980676,0.007261410788381743,0.013485477178423237,0.0,0.0024154589371980675,0.007246376811594203,0.012077294685990338,0.01970954356846473,0.0,0.02074688796680498,0.023858921161825725,0.028985507246376812,0.0,0.0,0.0,0.023858921161825725,0.023858921161825725,0.007246376811594203,0.03110529797341993,0.03110529797341993,0.0,0.022465772646180368,0.01970954356846473,0.0,0.016597510373443983,0.033816425120772944,0.041107903862729764,0.0480135105338064,0.042470984424800046,0.0,0.0
S6_D5 hbo,0.0,0.02021563342318059,0.003278688524590164,0.04345808846272811,0.038831691043259245,0.01752021563342318,0.018867924528301886,0.004918032786885246,0.053585789403914987,0.0,0.0,0.004918032786885246,0.004918032786885246,0.0215633423180593,0.02021563342318059,0.02425876010781671,0.001639344262295082,0.05405859219654456,0.018395121735672308,0.05136317440678715,0.03420529362379038,0.022438248420308428,0.030634969731783836,0.02622950819672131,0.036317440678715035,0.004918032786885246,0.022438248420308428,0.04914055940965932,0.012421015421324733,0.0,0.0,0.0,0.0450974327250232,0.02622950819672131,0.01752021563342318,0.0,0.009836065573770493,0.0,0.014754098360655738,0.030634969731783836,0.02003446599796739,0.022950819672131147,0.04240201493526578,0.004918032786885246,0.0,0.0,0.04229154699306262,0.004918032786885246,0.03431576156599355,0.032565949361495296,0.0,0.01078167115902965
S6_D6 hbo,0.0,0.016975308641975308,0.0021929824561403508,0.02136127355425601,0.05425601039636127,0.016975308641975308,0.016975308641975308,0.017543859649122806,0.02136127355425601,0.0,0.03289473684210526,0.03728070175438596,0.017543859649122806,0.016975308641975308,0.016975308641975308,0.016975308641975308,0.03508771929824561,0.01916829109811566,0.08447043534762833,0.016975308641975308,0.02355425601039636,0.04329109811565952,0.02136127355425601,0.0043859649122807015,0.02136127355425601,0.006578947368421052,0.02794022092267706,0.03232618583495776,0.012345679012345678,0.010802469135802469,0.0,0.0,0.04767706302794022,0.0043859649122807015,0.016975308641975308,0.0,0.0,0.0,0.010964912280701754,0.02794022092267706,0.02639701104613385,0.0,0.02574723846653671,0.0043859649122807015,0.0,0.0,0.05206302794022092,0.021929824561403508,0.03557504873294347,0.04767706302794022,0.0,0.012345679012345678
S6_D8 hbo,0.014121338912133892,0.02301255230125523,0.0,0.03163644816364482,0.030590423059042304,0.008368200836820083,0.02301255230125523,0.0,0.060220052688671935,0.005753138075313808,0.0,0.0,0.012552301255230125,0.0198744769874477,0.010460251046025104,0.01202928870292887,0.011506276150627616,0.04037269487060282,0.005753138075313808,0.07510460251046025,0.023706028203936157,0.010460251046025104,0.022857585619091896,0.03457694095769409,0.037955214628854796,0.0,0.010460251046025104,0.03980706648070664,0.015167364016736401,0.0,0.010460251046025104,0.014121338912133892,0.03666899116689912,0.025925925925925925,0.007322175732217573,0.0,0.0315938323260499,0.014121338912133892,0.024074074074074074,0.03174879900821323,0.023295366496203316,0.025925925925925925,0.04290252595691926,0.00993723849372385,0.0,0.0,0.026844103517743686,0.016779017511235082,0.04399116689911669,0.02969936463660313,0.0,0.005230125523012552
S7_D5 hbo,0.0,0.01985981308411215,0.003952569169960474,0.03764637434893428,0.03450186546488862,0.018691588785046728,0.01985981308411215,0.009881422924901186,0.04438328838978981,0.0,0.003952569169960474,0.009881422924901186,0.009881422924901186,0.01985981308411215,0.01985981308411215,0.01985981308411215,0.005928853754940711,0.04007055520667873,0.022731890214620812,0.03962265893391452,0.04438328838978981,0.029741236009013336,0.03567008976395404,0.017786561264822136,0.03369380517897381,0.009881422924901186,0.029741236009013336,0.04159894351889476,0.011322078977503602,0.0,0.0,0.0,0.04043071921982934,0.017786561264822136,0.016355140186915886,0.0,0.007905138339920948,0.0,0.017786561264822136,0.03962265893391452,0.028212847696797307,0.01383399209486166,0.04043071921982934,0.005928853754940711,0.0,0.0,0.04159894351889476,0.011049647223966607,0.028748476229175132,0.04438328838978981,0.0,0.011682242990654205
S7_D7 hbo,0.023809523809523808,0.0129366106080207,0.015567568122548718,0.026262089570627735,0.024238177375305446,0.04709542290396107,0.036746134417544506,0.008928571428571428,0.023674767449023595,0.0,0.010912698412698412,0.013888888888888888,0.008928571428571428,0.03476200743341752,0.04838908396476314,0.0496827450255652,0.011904761904761904,0.011686584940142507,0.021004024723300273,0.0129366106080207,0.014964372985071563,0.06158750693032711,0.018500123205815316,0.012031817901804964,0.0256152590402267,0.017551695106675702,0.02665095792521407,0.032516068091747265,0.006166707735271772,0.021825396825396824,0.023809523809523808,0.01488095238095238,0.024885007905706483,0.002976190476190476,0.03286515123513829,0.005821474773609315,0.0,0.017857142857142856,0.005952380952380952,0.02794461898601614,0.01630166943879751,0.009400860387276945,0.02953987761555679,0.00496031746031746,0.0,0.0,0.026825499496909586,0.021908817429516007,0.021305622292038848,0.02553183843610752,0.0,0.00646830530401035
S7_D8 hbo,0.004985754985754986,0.018518518518518517,0.008487361935637799,0.038549254066495446,0.028637390706356222,0.014957264957264958,0.018518518518518517,0.009852216748768473,0.037124752641994024,0.004985754985754986,0.0024630541871921183,0.009852216748768473,0.014837971734523458,0.018518518518518517,0.017094017094017096,0.017094017094017096,0.009911863360139222,0.03038819418129763,0.01768697458352631,0.03329684364167122,0.034275749792991174,0.026233983130534856,0.03964745344055689,0.030714496231737613,0.02448317965559345,0.013413470310022034,0.026233983130534856,0.04172455896593828,0.013146814870952803,0.0,0.004985754985754986,0.004985754985754986,0.03673880398018329,0.022167487684729065,0.009971509971509971,0.0035612535612535613,0.004985754985754986,0.004985754985754986,0.009852216748768473,0.04353500905225043,0.027984786605476264,0.02080263287159839,0.04528581252719184,0.01237491754733134,0.0,0.0,0.03816330540468472,0.019823726720278444,0.03673880398018329,0.040300057541436854,0.0,0.007122507122507123
S8_D6 hbo,0.012948207171314742,0.012948207171314742,0.017030642860656142,0.03554916137917466,0.026234567901234566,0.013944223107569721,0.012948207171314742,0.006172839506172839,0.04789484039152034,0.02021543455806404,0.0015432098765432098,0.006172839506172839,0.019121046677487583,0.012948207171314742,0.013944223107569721,0.013944223107569721,0.016034626924401163,0.020061728395061727,0.006172839506172839,0.03300993556637647,0.012345679012345678,0.020117062613742562,0.02275466037086223,0.07119669470267079,0.01658182086468939,0.020117062613742562,0.01712901480497762,0.04326521076189071,0.014491417047857951,0.0,0.012948207171314742,0.012948207171314742,0.029320987654320986,0.024691358024691357,0.0,0.008964143426294821,0.012948207171314742,0.012948207171314742,0.006172839506172839,0.038242093354975165,0.019121046677487583,0.034651517387241156,0.050587772367320843,0.017577836800944373,0.0,0.006172839506172839,0.016975308641975308,0.03007722197629236,0.05541414588559343,0.02340022625547194,0.0,0.0
S8_D8 hbo,0.0,0.013888888888888888,0.02127947220419641,0.031085514456701997,0.019612084505011174,0.019927536231884056,0.012077294685990338,0.010554113490518421,0.062216093445814406,0.0,0.0024875621890547263,0.009950248756218905,0.009950248756218905,0.013285024154589372,0.021135265700483092,0.024154589371980676,0.004975124378109453,0.030770062729829115,0.01659276083351359,0.04871475953565506,0.0301661979955296,0.03229324392530103,0.02444300237940731,0.01840435503641214,0.07745691830701565,0.020215949239310693,0.02987778498810296,0.03719626505155382,0.007318480063450861,0.0012077294685990338,0.0006038647342995169,0.0006038647342995169,0.022703511428365422,0.010554113490518421,0.008454106280193236,0.005434782608695652,0.024875621890547265,0.0,0.04289242194822987,0.033573076645756726,0.023307376162664935,0.013429230658302689,0.03478080611435576,0.007462686567164179,0.0,0.0006038647342995169,0.02874215877136059,0.03567308385608191,0.023307376162664935,0.02451510563126397,0.0006038647342995169,0.006642512077294686
S8_D15 hbo,0.0,0.0,0.042692814431944864,0.041463970811796896,0.01893939393939394,0.033444816053511704,0.0,0.01893939393939394,0.03811948920644573,0.003787878787878788,0.007575757575757576,0.01893939393939394,0.01893939393939394,0.0,0.03177257525083612,0.033444816053511704,0.011363636363636364,0.007575757575757576,0.01893939393939394,0.0,0.01893939393939394,0.05405645079558123,0.01972484037701429,0.038562886388973344,0.036447248403770144,0.05405645079558123,0.040678524374176545,0.04903972838755448,0.003787878787878788,0.0,0.0,0.0,0.01893939393939394,0.011363636363636364,0.0,0.015050167224080268,0.0,0.0,0.01893939393939394,0.04402300597952772,0.01893939393939394,0.025527009222661396,0.05238420999290565,0.011363636363636364,0.0,0.003787878787878788,0.01893939393939394,0.04235076517685213,0.030645079558123036,0.026515151515151516,0.0,0.0
S9_D2 hbo,0.0,0.014164305949008499,0.016049983489459324,0.03186534350614366,0.03280383739724361,0.020538243626062325,0.014164305949008499,0.02147239263803681,0.02974069761379239,0.0,0.012269938650306749,0.02147239263803681,0.02147239263803681,0.014164305949008499,0.0226628895184136,0.023371104815864022,0.015337423312883436,0.016758198786909748,0.029262760909991484,0.014164305949008499,0.02430959870696397,0.044135282156450406,0.026199621126540264,0.018409252854585584,0.03257355880359408,0.021476737517162274,0.05876449017188342,0.04484349745390083,0.008733207042180087,0.0,0.000708215297450425,0.000708215297450425,0.03351205269469403,0.009202453987730062,0.009915014164305949,0.0056657223796034,0.0,0.0,0.019113123272910548,0.04106779749387372,0.029736352734666925,0.010857852934531361,0.03729209753384661,0.009202453987730062,0.0,0.000708215297450425,0.03563669858704531,0.032095622099793185,0.030679191504892334,0.03422026799214446,0.000708215297450425,0.007790368271954674
S9_D9 hbo,0.0,0.013240857503152586,0.01486259273144519,0.058734648898583326,0.03486304715812913,0.02269861286254729,0.012610340479192938,0.010135135135135136,0.04269906728923122,0.0,0.006756756756756757,0.010135135135135136,0.010135135135135136,0.013871374527112233,0.02395964691046658,0.02711223203026482,0.007882882882882882,0.02711507219703941,0.017070822398691253,0.029006623268918348,0.020853924542449134,0.034725299069561365,0.024141417584040537,0.03134976085795758,0.02733802528884496,0.017114844983697444,0.026933301523465458,0.08278802131261148,0.006170262317803301,0.0,0.0,0.0,0.03887194256046715,0.019144144144144143,0.008827238335435058,0.01806204060302421,0.0,0.0,0.006756756756756757,0.03382496620201538,0.017971155266237233,0.02571913022732695,0.04422991718073685,0.0033783783783783786,0.0,0.0,0.034276552719175665,0.02148444156640878,0.03747600059075469,0.029367324449291663,0.0,0.006305170239596469
S9_D11 hbo,0.017796610169491526,0.0211864406779661,0.009345794392523364,0.016125455409472515,0.016125455409472515,0.006779661016949152,0.023728813559322035,0.009345794392523364,0.016125455409472515,0.009322033898305085,0.0,0.009345794392523364,0.10573419927134484,0.020338983050847456,0.006779661016949152,0.006779661016949152,0.01440677966101695,0.016125455409472515,0.016125455409472515,0.02457627118644068,0.016125455409472515,0.016125455409472515,0.022057658799303027,0.020362743545065738,0.016125455409472515,0.009345794392523364,0.016125455409472515,0.016125455409472515,0.10699350546491367,0.0,0.012711864406779662,0.017796610169491526,0.016125455409472515,0.0794392523364486,0.006779661016949152,0.0,0.01694915254237288,0.017796610169491526,0.009345794392523364,0.03137969269760811,0.032227150324726755,0.004672897196261682,0.027989862189133533,0.02290511642642167,0.0,0.0,0.016125455409472515,0.02290511642642167,0.02968477744337082,0.024600031680658958,0.0,0.005084745762711864
S10_D9 hbo,0.038834951456310676,0.0,0.04772522013998645,0.012841499209753894,0.0012135922330097086,0.038834951456310676,0.038834951456310676,0.0012135922330097086,0.0012135922330097086,0.0,0.0,0.0012135922330097086,0.0012135922330097086,0.03762135922330097,0.038834951456310676,0.03640776699029126,0.0,0.0012135922330097086,0.0942368480469632,0.0,0.0012135922330097086,0.03033980582524272,0.0012135922330097086,0.0012135922330097086,0.04772522013998645,0.0012135922330097086,0.0012135922330097086,0.0012135922330097086,0.0012135922330097086,0.18878414992097536,0.05046285843305486,0.0407541205689772,0.029323775118536916,0.036097313163242266,0.038834951456310676,0.0,0.0,0.032766990291262135,0.012841499209753894,0.0012135922330097086,0.0012135922330097086,0.0012135922330097086,0.0012135922330097086,0.014563106796116505,0.0,0.020123052607812147,0.0012135922330097086,0.0012135922330097086,0.02446940618649808,0.0012135922330097086,0.012841499209753894,0.011627906976744186
S10_D10 hbo,0.07009331590625854,0.033932135728542916,0.0029940119760479044,0.007984031936127744,0.0,0.04314720812182741,0.06183825242915185,0.0,0.0,0.010978043912175649,0.0,0.0,0.01996007984031936,0.05730417337913006,0.04314720812182741,0.04060913705583756,0.021956087824351298,0.0,0.0,0.021956087824351298,0.0,0.030456852791878174,0.006986027944111776,0.012974051896207584,0.0,0.0,0.0,0.0,0.016966067864271458,0.03934010152284264,0.08080032827745524,0.05740296057630931,0.005076142131979695,0.0,0.04314720812182741,0.0,0.028942115768463075,0.06121006717529408,0.005988023952095809,0.020958083832335328,0.020958083832335328,0.0,0.016966067864271458,0.03292146671124756,0.0,0.01287526469902834,0.0,0.02694610778443114,0.021956087824351298,0.012974051896207584,0.004263047509042828,0.003992015968063872
S10_D12 hbo,0.06950361324118778,0.02385685884691849,0.002982107355864811,0.003976143141153081,0.0,0.03968253968253968,0.06353939852945817,0.0,0.0,0.012521695225472562,0.0,0.0,0.02385685884691849,0.055587112247152,0.03968253968253968,0.03650793650793651,0.02286282306163022,0.0,0.0,0.0268389662027833,0.0,0.026984126984126985,0.006958250497017893,0.014509766796049102,0.0,0.0,0.0,0.0,0.020874751491053677,0.03968253968253968,0.06552747010003471,0.07189245479503929,0.006349206349206349,0.0,0.03968253968253968,0.0,0.0268389662027833,0.06850957745589953,0.003976143141153081,0.02286282306163022,0.02385685884691849,0.0,0.016898608349900597,0.036346997380794596,0.0,0.01667455583956578,0.0,0.02286282306163022,0.02584493041749503,0.012922465208747515,0.004569408943166398,0.003976143141153081
S11_D9 hbo,0.004789272030651341,0.019721577726218097,0.00307580161968513,0.03408939381817212,0.045179169889146685,0.02219066414202025,0.023350756949444842,0.008620689655172414,0.036558480233974275,0.0,0.012452107279693486,0.01532567049808429,0.008620689655172414,0.024510849756869436,0.024510849756869436,0.0225951409446089,0.013409961685823755,0.03197144660461726,0.028086691379754822,0.033131539412041854,0.02486198895911673,0.029853499391062396,0.025064227360411053,0.019157088122605363,0.0225951409446089,0.0038314176245210726,0.023148518548150518,0.04271008347334453,0.010238596865527019,0.0059493648380759346,0.0059493648380759346,0.0059493648380759346,0.0683276884372972,0.016283524904214558,0.021030571334595655,0.0,0.0,0.004789272030651341,0.006907219244206203,0.027937790578801858,0.020626094532007005,0.014367816091954023,0.03348267861428914,0.007662835249042145,0.0,0.0059493648380759346,0.04271008347334453,0.01053639846743295,0.03569618902845561,0.03731409623881021,0.002117947213554862,0.012761020881670533
S11_D11 hbo,0.0,0.0,0.07980492130348038,0.021613832853025938,0.023054755043227664,0.0,0.0,0.005763688760806916,0.025936599423631124,0.0,0.001440922190201729,0.005763688760806916,0.027377521613832854,0.0,0.0,0.0,0.002881844380403458,0.020172910662824207,0.005763688760806916,0.020172910662824207,0.012968299711815562,0.005763688760806916,0.011527377521613832,0.025936599423631124,0.11970738195522058,0.005763688760806916,0.005763688760806916,0.027377521613832854,0.023054755043227664,0.15384615384615385,0.0,0.0,0.027377521613832854,0.160053203280869,0.0,0.0,0.0,0.0,0.005763688760806916,0.012968299711815562,0.007204610951008645,0.021613832853025938,0.024495677233429394,0.004322766570605188,0.0,0.0,0.01729106628242075,0.005763688760806916,0.06583906007537133,0.01585014409221902,0.0,0.0
S11_D12 hbo,0.042821158690176324,0.01928374655647383,0.0,0.01928374655647383,0.01790633608815427,0.06198694062215931,0.060845459402821434,0.0,0.01790633608815427,0.0,0.0,0.0,0.0,0.05832656771516401,0.06336435109047886,0.060845459402821434,0.0,0.01928374655647383,0.013774104683195593,0.01928374655647383,0.01652892561983471,0.04813303634004344,0.01790633608815427,0.0,0.01928374655647383,0.0,0.01790633608815427,0.01928374655647383,0.011019283746556474,0.03904282115869018,0.041561712846347604,0.030226700251889168,0.02432152993178869,0.0,0.07863383086648487,0.0,0.0,0.03400503778337532,0.0,0.01790633608815427,0.013774104683195593,0.0,0.01652892561983471,0.013853904282115869,0.0,0.008816120906801008,0.01928374655647383,0.0,0.008264462809917356,0.01652892561983471,0.0012594458438287153,0.011019283746556474
S11_D13 hbo,0.0,0.0,0.024861878453038673,0.024861878453038673,0.0,0.024861878453038673,0.0,0.0,0.024861878453038673,0.013812154696132596,0.0,0.04143646408839779,0.0,0.0,0.024861878453038673,0.024861878453038673,0.0,0.0,0.0,0.0,0.0,0.024861878453038673,0.011049723756906077,0.022099447513812154,0.019337016574585635,0.024861878453038673,0.016574585635359115,0.25402854511970535,0.0,0.0,0.0,0.0,0.0,0.0,0.0,0.33436924493554326,0.0,0.0,0.0,0.022099447513812154,0.0,0.013812154696132596,0.024861878453038673,0.0,0.0,0.0,0.0,0.016574585635359115,0.011049723756906077,0.0,0.0,0.0
S12_D10 hbo,0.03162055335968379,0.030632411067193676,0.0,0.0,0.0,0.0,0.023715415019762844,0.0,0.08870967741935484,0.010869565217391304,0.0,0.0,0.023715415019762844,0.018774703557312252,0.0,0.0,0.022727272727272728,0.04032258064516129,0.0,0.11538951931658804,0.024193548387096774,0.0,0.00691699604743083,0.012845849802371542,0.08870967741935484,0.0,0.0,0.0,0.020750988142292492,0.0,0.02865612648221344,0.02865612648221344,0.0,0.0,0.0,0.0,0.11325385694249648,0.03162055335968379,0.09068596200433508,0.022727272727272728,0.023715415019762844,0.0,0.016798418972332016,0.018774703557312252,0.0,0.0,0.0,0.0266798418972332,0.025691699604743084,0.012845849802371542,0.0,0.0
S12_D12 hbo,0.07429451236326869,0.02766798418972332,0.0009881422924901185,0.0009881422924901185,0.0,0.040697674418604654,0.0644130894383675,0.0,0.0,0.010869565217391304,0.0,0.0,0.023715415019762844,0.05650795109844655,0.040697674418604654,0.0377906976744186,0.022727272727272728,0.0,0.0,0.0266798418972332,0.0,0.029069767441860465,0.00691699604743083,0.012845849802371542,0.0,0.0,0.0,0.0,0.020750988142292492,0.040697674418604654,0.06737751631583785,0.06650427428991634,0.005813953488372093,0.0,0.040697674418604654,0.0,0.030632411067193676,0.07185288169868553,0.0009881422924901185,0.022727272727272728,0.023715415019762844,0.0,0.016798418972332016,0.03476307565033551,0.0,0.011162560897141282,0.0,0.0266798418972332,0.025691699604743084,0.012845849802371542,0.0024416306645831417,0.0009881422924901185
S12_D14 hbo,0.0,0.02586206896551724,0.030209895052473762,0.04962518740629685,0.015217391304347827,0.0,0.0,0.015217391304347827,0.034782608695652174,0.0,0.034557721139430286,0.015217391304347827,0.015217391304347827,0.02586206896551724,0.0,0.0,0.010869565217391304,0.015217391304347827,0.015217391304347827,0.02826086956521739,0.015217391304347827,0.015217391304347827,0.006521739130434782,0.006521739130434782,0.03695652173913044,0.008695652173913044,0.013043478260869565,0.015217391304347827,0.002173913043478261,0.0,0.06896551724137931,0.02586206896551724,0.015217391304347827,0.006521739130434782,0.0,0.0,0.038980509745127435,0.0,0.12751124437781108,0.013043478260869565,0.013043478260869565,0.002173913043478261,0.010869565217391304,0.006521739130434782,0.0,0.034482758620689655,0.015217391304347827,0.01956521739130435,0.015217391304347827,0.015217391304347827,0.06896551724137931,0.05172413793103448
S13_D6 hbo,0.01002615518744551,0.017872711421098517,0.010475804735393255,0.03210188852810138,0.026659756022214747,0.013513513513513514,0.018744551002615517,0.013779527559055118,0.03123004894658438,0.004795117698343505,0.007874015748031496,0.013779527559055118,0.023805682746500627,0.015693112467306015,0.014821272885789015,0.015257192676547515,0.01899683529096788,0.0222868283574405,0.018574645257398624,0.03055557462466276,0.025127171875965373,0.028600800444844133,0.029261545009576506,0.029486369783550376,0.020290864906054137,0.014412812609409003,0.025324537135560758,0.040847743857649874,0.014174258078245886,0.0,0.008282476024411508,0.01002615518744551,0.03300118762399687,0.017716535433070866,0.006102877070619006,0.003923278116826504,0.01002615518744551,0.01002615518744551,0.011811023622047244,0.04562913179880414,0.030780399398636634,0.018574645257398624,0.043449532845011636,0.01418798783543513,0.0,0.0,0.03430894699627237,0.029036720235602633,0.04128366364840838,0.03910406469461587,0.0,0.004359197907585004
S13_D11 hbo,0.01384083044982699,0.02249134948096886,0.0044444444444444444,0.019761630142252982,0.02362937331795463,0.008073817762399077,0.02364475201845444,0.015555555555555555,0.019184928873510188,0.03301038062283737,0.008888888888888889,0.015555555555555555,0.029396386005382545,0.01903114186851211,0.00922722029988466,0.010380622837370242,0.023221837754709727,0.015809304113802384,0.021899269511726258,0.028665897731641677,0.022560553633217996,0.025936178392925797,0.0249519415609381,0.018608227604767397,0.01704728950403691,0.008888888888888889,0.023713956170703578,0.030380622837370242,0.018946559015763167,0.0,0.010957324106113034,0.01384083044982699,0.028073817762399075,0.011111111111111112,0.006920415224913495,0.0,0.01384083044982699,0.01384083044982699,0.013333333333333334,0.04084582852748943,0.06306805074971165,0.03333333333333333,0.03574009996155325,0.0176239907727797,0.0,0.0,0.030380622837370242,0.029396386005382545,0.03730103806228374,0.03787773933102653,0.0,0.0057670126874279125
S13_D13 hbo,0.0,0.0,0.03418645666707682,0.05412001148435257,0.023255813953488372,0.02880658436213992,0.0,0.0033222591362126247,0.05293056068249867,0.02823920265780731,0.0,0.0033222591362126247,0.0033222591362126247,0.0,0.026748971193415638,0.02880658436213992,0.0,0.023255813953488372,0.0033222591362126247,0.023255813953488372,0.011627906976744186,0.032128843498352544,0.021915972820365587,0.05293056068249867,0.032128843498352544,0.032128843498352544,0.030071230329628263,0.057045787019947225,0.0016611295681063123,0.0,0.00205761316872428,0.00205761316872428,0.02823920265780731,0.026578073089700997,0.0,0.01440329218106996,0.0,0.0,0.005379872304936905,0.03837687817015982,0.024916943521594685,0.07990511737281764,0.053723527883734606,0.0033222591362126247,0.0,0.00205761316872428,0.016611295681063124,0.032128843498352544,0.04264249483887727,0.014950166112956811,0.00205761316872428,0.00205761316872428
S13_D15 hbo,0.007515473032714412,0.016357206012378427,0.01316200490266152,0.037928122534771305,0.03252248818013839,0.016357206012378427,0.015915119363395226,0.008982035928143712,0.03959587456386961,0.004862953138815208,0.004491017964071856,0.008982035928143712,0.016497508960858123,0.014146772767462422,0.016357206012378427,0.01768346595932803,0.01350349698481022,0.02714729691810014,0.01384498906695892,0.03731528984471376,0.02098852692492998,0.02754967518543814,0.02568073402267084,0.037385441318953605,0.020848223976450284,0.015713930229726225,0.023570895344589338,0.04762358571980707,0.012107085563620768,0.0,0.007515473032714412,0.007515473032714412,0.037013506144210256,0.025449101796407185,0.00618921308576481,0.003978779840848806,0.007515473032714412,0.007515473032714412,0.008982035928143712,0.039455571615389914,0.02550998798159649,0.028644302906124092,0.05214504677647358,0.012006490996786268,0.0,0.0,0.029799816811999343,0.025339241940522138,0.04320271922997507,0.0331657639627906,0.0,0.004420866489832007
S14_D12 hbo,0.047748071415027495,0.024934383202099737,0.005114617326826542,0.007015758011237189,0.0076045627376425855,0.022813688212927757,0.047748071415027495,0.0076045627376425855,0.005703422053231939,0.014435695538057743,0.0019011406844106464,0.0076045627376425855,0.032538945939742325,0.0424987275830065,0.022813688212927757,0.019011406844106463,0.02873666457092103,0.0038022813688212928,0.0076045627376425855,0.024934383202099737,0.0076045627376425855,0.015209125475285171,0.014889773759268685,0.02276378950730018,0.005703422053231939,0.0076045627376425855,0.0076045627376425855,0.0076045627376425855,0.025523187928505133,0.022813688212927757,0.046435735457022245,0.049060407373032744,0.015209125475285171,0.005703422053231939,0.022813688212927757,0.0,0.024934383202099737,0.047748071415027495,0.008916898695647834,0.032538945939742325,0.032538945939742325,0.0019011406844106464,0.028601938065726574,0.050238016825843536,0.0,0.014620320748879773,0.0076045627376425855,0.031226609981737073,0.032538945939742325,0.023352594233705577,0.0032134766424158955,0.0013123359580052493
S14_D13 hbo,0.0,0.0,0.0,0.0,0.0,0.0,0.0,0.0,0.0,0.0,0.0,0.0,0.0,0.0,0.0,0.0,0.0,0.0,0.0,0.0,0.0,0.0,0.0,0.0,0.0,0.0,0.0,0.0,0.0,0.0,0.0,0.0,0.0,0.0,0.0,0.0,0.0,0.0,0.0,0.0,0.0,0.0,0.0,0.0,0.5,0.0,0.0,0.0,0.0,0.0,0.0,0.0
S14_D14 hbo,0.03305785123966942,0.0,0.016483516483516484,0.027472527472527472,0.016483516483516484,0.03305785123966942,0.03305785123966942,0.0,0.0,0.02066115702479339,0.08791208791208792,0.0,0.0,0.03305785123966942,0.03305785123966942,0.024793388429752067,0.0989010989010989,0.0,0.0,0.0,0.0,0.0,0.0,0.02066115702479339,0.0,0.0,0.0,0.0,0.0,0.03305785123966942,0.060530378712196894,0.0495413677231859,0.01652892561983471,0.0,0.03305785123966942,0.0,0.0,0.03305785123966942,0.027472527472527472,0.0,0.0,0.004132231404958678,0.0,0.03305785123966942,0.0,0.1773226773226773,0.0,0.0,0.0,0.0,0.026110253382980658,0.027472527472527472
S14_D16 hbo,0.0,0.022157996146435453,0.0025380710659898475,0.03256946685836683,0.04587111098070284,0.015414258188824663,0.019267822736030827,0.011421319796954314,0.030642684584763748,0.0,0.01903553299492386,0.02284263959390863,0.011421319796954314,0.02119460500963391,0.019267822736030827,0.024084778420038536,0.02030456852791878,0.03130043132537191,0.032170906565730656,0.03357931594338977,0.02779896912258052,0.03576528466496484,0.028456715863188677,0.015228426395939087,0.02789188501902331,0.005076142131979695,0.02688203593400037,0.0446949913441507,0.008976164627407255,0.0,0.0,0.0,0.04683450211750438,0.015228426395939087,0.01348747591522158,0.0,0.0,0.0,0.007614213197969543,0.033227213598974986,0.02622428919339221,0.012690355329949238,0.03703432019795976,0.0038071065989847717,0.0,0.0,0.057737449018514714,0.019739737683753412,0.03369912854669757,0.04718660446191915,0.0,0.009633911368015413
S15_D13 hbo,0.01650366748166259,0.020171149144254278,0.01407179659380673,0.016828966284353125,0.02636231990513867,0.01039119804400978,0.015281173594132029,0.019313304721030045,0.014995225453057284,0.006723716381418093,0.019313304721030045,0.02575107296137339,0.03214949054010095,0.011613691931540342,0.01039119804400978,0.012224938875305624,0.035517907174412625,0.004291845493562232,0.02575107296137339,0.017726161369193152,0.010417431818420307,0.03858725878044429,0.016217719340587848,0.02233018877824066,0.028156710074818722,0.018363642087368962,0.023877981468461755,0.030003567793319832,0.013148367734556177,0.0,0.015281173594132029,0.015281173594132029,0.02636231990513867,0.006437768240343348,0.0,0.004889975550122249,0.01650366748166259,0.01650366748166259,0.012875536480686695,0.037936661175063224,0.029990450906114567,0.010703379959495052,0.034568244540751546,0.01805146017188369,0.0,0.0,0.03064104851149564,0.0860441566890878,0.04408848127433183,0.03736476489291373,0.0,0.0
S15_D15 hbo,0.01706036745406824,0.01837270341207349,0.010091310648253225,0.02515989547869709,0.03387048902700909,0.00853018372703412,0.01968503937007874,0.009977827050997782,0.03468524305858663,0.007217847769028871,0.012195121951219513,0.015521064301552107,0.025725858547060776,0.014435695538057743,0.00853018372703412,0.00853018372703412,0.02773946493938812,0.019458072175567855,0.019458072175567855,0.03651843962963609,0.01391483492501353,0.022942600578475362,0.020680203222934162,0.03973089838271325,0.015136965972379839,0.009027765653461832,0.01518206842769931,0.035137722529694874,0.018825182883181732,0.0,0.013123359580052493,0.01706036745406824,0.03719643137734169,0.018847006651884702,0.003937007874015748,0.003937007874015748,0.016404199475065617,0.01706036745406824,0.0066518847006651885,0.035817169195314,0.027445571520854792,0.021222887604681342,0.0396406934720743,0.015793133951382463,0.0,0.0,0.028327251776454773,0.030567825363293003,0.06394073246387438,0.03574878805337803,0.0,0.003937007874015748
S15_D16 hbo,0.00876010781671159,0.02223719676549865,0.0026595744680851063,0.026083185180937087,0.038707203073923266,0.01078167115902965,0.0215633423180593,0.011968085106382979,0.025409330733497736,0.006064690026954178,0.017287234042553192,0.02127659574468085,0.02072819292309457,0.018867924528301886,0.012129380053908356,0.013477088948787063,0.027377129093307334,0.022731834604576475,0.028688994666513735,0.03287549463783908,0.024753397946894535,0.030764322991340257,0.028158513505763608,0.021366204048861616,0.017466450650914723,0.006648936170212766,0.02145581235304238,0.034753684693467915,0.014806876182829616,0.0,0.00876010781671159,0.00876010781671159,0.041366777542008376,0.014627659574468085,0.009433962264150943,0.0,0.00876010781671159,0.00876010781671159,0.007978723404255319,0.03686485633996674,0.029524144061478463,0.011968085106382979,0.038850576360612496,0.012749469518839249,0.0,0.0,0.045391982565808335,0.026083185180937087,0.040728766416241326,0.052804381487641217,0.0,0.006738544474393531
S16_D14 hbo,0.037037037037037035,0.0,0.023076923076923078,0.03076923076923077,0.0,0.037037037037037035,0.037037037037037035,0.0,0.0,0.0,0.023076923076923078,0.0,0.0,0.037037037037037035,0.037037037037037035,0.0,0.0,0.0,0.0,0.0,0.0,0.0,0.0,0.0,0.0,0.0,0.0,0.0,0.0,0.04472934472934473,0.0678062678062678,0.06011396011396011,0.037037037037037035,0.007692307692307693,0.037037037037037035,0.0,0.0,0.037037037037037035,0.06153846153846154,0.0,0.0,0.0,0.0,0.037037037037037035,0.0,0.0678062678062678,0.0,0.0,0.0,0.0,0.23390313390313391,0.046153846153846156
S16_D16 hbo,0.0,0.015873015873015872,0.004761904761904762,0.023809523809523808,0.015873015873015872,0.015873015873015872,0.015873015873015872,0.0,0.015873015873015872,0.0,0.004761904761904762,0.0,0.0,0.015873015873015872,0.015873015873015872,0.015873015873015872,0.0,0.015873015873015872,0.015873015873015872,0.015873015873015872,0.015873015873015872,0.015873015873015872,0.015873015873015872,0.0,0.015873015873015872,0.0,0.015873015873015872,0.015873015873015872,0.012698412698412698,0.0,0.007936507936507936,0.004761904761904762,0.015873015873015872,0.0,0.015873015873015872,0.0,0.0,0.0,0.011111111111111112,0.015873015873015872,0.015873015873015872,0.0,0.015873015873015872,0.0,0.0,0.006349206349206349,0.015873015873015872,0.0,0.009523809523809525,0.015873015873015872,0.009523809523809525,0.023809523809523808
