,S1_D1 hbo,S1_D3 hbo,S2_D1 hbo,S2_D2 hbo,S2_D4 hbo,S3_D1 hbo,S3_D3 hbo,S3_D4 hbo,S3_D5 hbo,S4_D2 hbo,S4_D4 hbo,S4_D6 hbo,S4_D11 hbo,S5_D3 hbo,S5_D5 hbo,S5_D7 hbo,S6_D4 hbo,S6_D5 hbo,S6_D6 hbo,S6_D8 hbo,S7_D5 hbo,S7_D7 hbo,S7_D8 hbo,S8_D6 hbo,S8_D8 hbo,S8_D15 hbo,S9_D2 hbo,S9_D9 hbo,S9_D11 hbo,S10_D9 hbo,S10_D10 hbo,S10_D12 hbo,S11_D9 hbo,S11_D11 hbo,S11_D12 hbo,S11_D13 hbo,S12_D10 hbo,S12_D12 hbo,S12_D14 hbo,S13_D6 hbo,S13_D11 hbo,S13_D13 hbo,S13_D15 hbo,S14_D12 hbo,S14_D13 hbo,S14_D14 hbo,S14_D16 hbo,S15_D13 hbo,S15_D15 hbo,S15_D16 hbo,S16_D14 hbo,S16_D16 hbo
S1_D1 hbo,0.15578085396763502,0.01046337817638266,0.009715994020926755,0.00523168908819133,0.008221225710014948,0.028400597907324365,0.02914798206278027,0.0,0.009715994020926755,0.002242152466367713,0.008221225710014948,0.0,0.0,0.016442451420029897,0.007473841554559043,0.01046337817638266,0.0,0.0,0.005979073243647235,0.0,0.0,0.006726457399103139,0.0,0.009715994020926755,0.0,0.03220250861116527,0.0,0.01046337817638266,0.004484304932735426,0.11909404042373431,0.01046337817638266,0.01046337817638266,0.028400597907324365,0.01046337817638266,0.0786703061025541,0.007473841554559043,0.11915903035029571,0.01046337817638266,0.004484304932735426,0.004484304932735426,0.008968609865470852,0.01569506726457399,0.005979073243647235,0.0779229219470982,0.01943198804185351,0.0,0.021739130434782608,0.02242152466367713,0.02547605121206213,0.008968609865470852,0.007473841554559043,0.011210762331838564
S1_D3 hbo,0.0166270783847981,0.10183462618141953,0.0166270783847981,0.012237762237762238,0.016988356061990267,0.017814726840855107,0.04905486437552946,0.012237762237762238,0.02886484062256034,0.012237762237762238,0.012237762237762238,0.012237762237762238,0.012237762237762238,0.10302227463747654,0.025301895254389316,0.03242778599073136,0.012237762237762238,0.012237762237762238,0.012237762237762238,0.012237762237762238,0.0,0.012237762237762238,0.0,0.012237762237762238,0.012237762237762238,0.012237762237762238,0.012237762237762238,0.019002375296912115,0.0,0.0166270783847981,0.047601448432802354,0.04354434164410412,0.019002375296912115,0.0,0.014251781472684086,0.02494061757719715,0.017814726840855107,0.034242479610650634,0.02985316346361477,0.012237762237762238,0.012237762237762238,0.0034965034965034965,0.012237762237762238,0.015439429928741092,0.011876484560570071,0.0034965034965034965,0.0035629453681710215,0.017814726840855107,0.012237762237762238,0.0,0.03635200903609455,0.0
S2_D1 hbo,0.011764705882352941,0.013445378151260505,0.06341710996325135,0.014219541027420143,0.02636650990671498,0.04905237324287513,0.017192197980109476,0.021018040243620383,0.0255261737722612,0.011467889908256881,0.011467889908256881,0.006880733944954129,0.010321100917431193,0.019943849099272735,0.031942409991519545,0.037973170919744045,0.012996941896024464,0.013379204892966361,0.0,0.012232415902140673,0.013379204892966361,0.013761467889908258,0.011085626911314985,0.0045871559633027525,0.006498470948012232,0.006880733944954129,0.011850152905198776,0.044471641867756276,0.0205599671061085,0.038355433916685944,0.01765027111762136,0.02827461259733251,0.04569424099915195,0.019643820831084728,0.03354727211985712,0.03140852671343767,0.00382262996941896,0.02529553105645928,0.005042016806722689,0.004969418960244648,0.009938837920489297,0.02231644951558605,0.006880733944954129,0.012996941896024464,0.024913268059517386,0.0,0.028887518310076327,0.02926656901292627,0.012232415902140673,0.013761467889908258,0.013372780304782464,0.02804718217562254
S2_D2 hbo,0.02364864864864865,0.0013302926643861649,0.012648052841895487,0.04394074804565112,0.035093531387716106,0.028209652069401216,0.00589129608513873,0.013492968453059672,0.017631514068230145,0.02234018511099469,0.027956691012563303,0.01701901445345003,0.02234018511099469,0.005321170657544659,0.01872939073623224,0.009502090459901177,0.01596351197263398,0.019109474354628286,0.02001730921343236,0.0208198506374105,0.01193025979228944,0.02267789454220469,0.015308638170667818,0.0372892847237203,0.01815926530863817,0.0416178721480888,0.022150143301796668,0.010072215887495248,0.030954985772545636,0.02687935940501505,0.005701254275940707,0.010262257696693273,0.032960697299351804,0.033720864536143896,0.016976640266263984,0.008931965032307108,0.0015203344735841885,0.009122006841505131,0.005131128848346636,0.01944718378583829,0.03847190976609449,0.03557890844093809,0.028104358634575284,0.006461421512732801,0.026921733592201097,0.005321170657544659,0.010790008937101298,0.030300111970579476,0.030764943963347613,0.009882174078297225,0.008171797795515013,0.007411630558722919
S2_D4 hbo,0.014360313315926894,0.006631517294101194,0.02642880201558588,0.02454655101163105,0.04985073434077576,0.019394546098850777,0.01025616489780639,0.03458084162908299,0.019921891841020244,0.014297221103503826,0.019317783907069376,0.008860249697946033,0.014095851792186871,0.010860272831757254,0.017304090793899822,0.02974797815747606,0.016512283527990335,0.012484897301651228,0.009561624792715794,0.013089005235602094,0.009665726943213854,0.016304079226994214,0.009262988320579944,0.0170958864929037,0.010068465565847765,0.019609585389526063,0.014095851792186871,0.03025481893060803,0.035886324657803614,0.02732471143199343,0.011964386549160926,0.02352603447568794,0.045316507341304685,0.029754813147155224,0.027435648572170658,0.03748360916898093,0.002013693113169553,0.014686289746779406,0.009853426275172479,0.009158886170081882,0.019817789690522183,0.03798361495243373,0.014387653274643555,0.007450664518727346,0.03727540486798481,0.005936977189010598,0.008457511075312122,0.045108303040308564,0.017408192944397886,0.01067257349979863,0.014179448973647434,0.008457511075312122
S3_D1 hbo,0.02710413694721826,0.011412268188302425,0.04474882614194875,0.017644689194730487,0.020497756241806095,0.06014181591364563,0.021764743252842958,0.012651821862348178,0.0226375565271128,0.014285549273160955,0.019784489480037193,0.00708502024291498,0.01062753036437247,0.018497288431217406,0.029056957383032912,0.027056489572444224,0.012651821862348178,0.012651821862348178,0.004992867332382311,0.012651821862348178,0.012651821862348178,0.01835795595649939,0.011639676113360324,0.013619929886166091,0.006072874493927126,0.01585141527141677,0.012651821862348178,0.03191002443010852,0.016931422432961588,0.03918202452251555,0.016979069807735624,0.024064090050650605,0.04189575909487314,0.0219242897653439,0.024777356812419507,0.019784489480037193,0.004048582995951417,0.024064090050650605,0.0042796005706134095,0.00934032931555268,0.01796739186933646,0.021418216890849974,0.012285081462572265,0.012651821862348178,0.023350823288881703,0.0,0.025490623574188406,0.028965272283088934,0.016218155671192686,0.017644689194730487,0.012699469237122214,0.033336557953646324
S3_D3 hbo,0.03979591836734694,0.03285981059090303,0.018867547018807523,0.014472455648926238,0.01575296785380819,0.023969587835134056,0.08057222889155662,0.01353874883286648,0.027270908363345336,0.0196078431372549,0.011204481792717087,0.02054154995331466,0.016339869281045753,0.05248766173135921,0.022809123649459785,0.02986527944511138,0.014472455648926238,0.014005602240896359,0.009337068160597572,0.01680672268907563,0.0056022408963585435,0.00980392156862745,0.005135387488328665,0.016339869281045753,0.020074696545284782,0.018674136321195144,0.018674136321195144,0.020908363345338136,0.0056022408963585435,0.03621448579431773,0.02201547285580899,0.023969587835134056,0.03315326130452181,0.0056022408963585435,0.019887955182072828,0.015806322529011603,0.017553688141923436,0.02498999599839936,0.006122448979591836,0.014005602240896359,0.014005602240896359,0.014612511671335201,0.014472455648926238,0.022949179671868748,0.020908363345338136,0.0,0.0056022408963585435,0.020995064692543686,0.014005602240896359,0.013765506202480994,0.01020408163265306,0.013765506202480994
S3_D4 hbo,0.0,0.0016010978956999085,0.030958233666596856,0.016010978956999086,0.05726474057253717,0.0052607502287282705,0.006404391582799634,0.062335343202636714,0.014181152790484904,0.013723696248856358,0.012808783165599268,0.010064043915827997,0.013723696248856358,0.006633119853613907,0.012808783165599268,0.04296784576549566,0.016697163769441904,0.013952424519670631,0.008005489478499543,0.014409881061299177,0.009835315645013724,0.013952424519670631,0.008920402561756633,0.008920402561756633,0.012351326623970723,0.011893870082342177,0.013952424519670631,0.03301678810392531,0.048495904937223736,0.0157078451041127,0.007129157067427992,0.020511138791212427,0.04739084425533791,0.031148381265225587,0.038125971406210386,0.05314763169788027,0.0016010978956999085,0.007090576395242452,0.0022872827081427266,0.009149130832570906,0.01303751143641354,0.05059304004673773,0.01029277218664227,0.007548032936870997,0.05432985372413717,0.005299330900913811,0.00869167429094236,0.05432985372413717,0.015096065873741994,0.008920402561756633,0.0087302549631279,0.00869167429094236
S3_D5 hbo,0.023214285714285715,0.026483679525222553,0.0302087749046206,0.01810618906316236,0.022191606612971596,0.0302988554472234,0.03135862653666808,0.013565069944891903,0.040684612123781265,0.018832132259431963,0.013988978380669776,0.013533276812208563,0.018620178041543027,0.03093471810089021,0.03414582450190759,0.034537939805002124,0.015684612123781264,0.017348452734209412,0.011413734633319203,0.01777236116998728,0.010051928783382789,0.01429101314116151,0.011837643069097074,0.013533276812208563,0.013533276812208563,0.01416913946587537,0.0190440864773209,0.0355977108944468,0.012505298855447223,0.027029461636286563,0.030086901229334467,0.03538575667655786,0.03496184824078,0.010173802458668928,0.008054260279779568,0.026971174226367106,0.0019075879610004239,0.03411403136922425,0.014741415854175498,0.012473505722763883,0.01777236116998728,0.00847816871555744,0.01522891055532005,0.007630351844001695,0.00635862653666808,0.004027130139889784,0.00847816871555744,0.02778719796523951,0.01692454429843154,0.010385756676557863,0.02506358626536668,0.00847816871555744
S4_D2 hbo,0.013513513513513514,0.0014073180538801769,0.005227181342983514,0.029396102978732654,0.02288114411154218,0.017534422238885447,0.007639726578206675,0.011861680739847206,0.018577685043306275,0.03691628902726611,0.02839087579738967,0.027586694052315286,0.03080342103261283,0.005428226779252111,0.025375194253360718,0.009851226377161239,0.014877362283876157,0.020870689748856214,0.03728034427672546,0.028792966669926864,0.011340049337636791,0.029075517012790836,0.0205501037829144,0.040094980384485814,0.027385648616046684,0.04029602582075441,0.031004466468881428,0.009650180940892641,0.021875916930199198,0.016730240493811062,0.005830317651789305,0.009851226377161239,0.02235951270933177,0.021957421836794576,0.015241417533335508,0.007237635705669481,0.0014073180538801769,0.008644953759549658,0.005428226779252111,0.03768243514926266,0.04351275280105196,0.0205501037829144,0.03949184407568002,0.005830317651789305,0.018338603983959836,0.0056292722155207075,0.0066344993968636915,0.018539649420228434,0.03969288951194862,0.009248090068355449,0.008041817450743867,0.0066344993968636915
S4_D4 hbo,0.02912621359223301,0.0014976465554129225,0.00599058622165169,0.03039537038191026,0.029111673334413467,0.03383310276638791,0.004920838682071031,0.014622306417238929,0.013692768506632435,0.023327766491768136,0.04338709074367187,0.01069747539580659,0.016046213093709884,0.005134788189987163,0.012409071459135643,0.009841677364142062,0.014976465554129225,0.011553273427471117,0.029687052108129663,0.013906718014548566,0.007702182284980745,0.03361188312956201,0.007916131792896876,0.040037638495955735,0.010055626872058195,0.038967890956375074,0.015190415062045357,0.01069747539580659,0.028683774318581205,0.0301222212528717,0.009059619211419503,0.014194407401406667,0.03632675698243952,0.038326042432626675,0.01676907162531002,0.007916131792896876,0.0014976465554129225,0.010055626872058195,0.006204535729567822,0.02440478416025857,0.04560032570177516,0.03704234538512989,0.030970749155626455,0.006632434745400086,0.032261716332033015,0.00884566970350337,0.007488232777064612,0.03490285030596857,0.02454499378923273,0.010055626872058195,0.01226886183016148,0.007488232777064612
S4_D6 hbo,0.0,0.002023121387283237,0.004913294797687861,0.022841401734104046,0.012716763005780347,0.003468208092485549,0.011560693641618497,0.012716763005780347,0.021396315028901734,0.03556719653179191,0.013583815028901734,0.06016076589595376,0.04048952312138728,0.007803468208092485,0.03673229768786127,0.014161849710982659,0.014161849710982659,0.027763728323699423,0.0428106936416185,0.04048952312138728,0.012725794797687862,0.0170610549132948,0.04310874277456647,0.05553648843930636,0.051481213872832374,0.04945809248554914,0.04164559248554914,0.0072254335260115606,0.010404624277456647,0.004624277456647399,0.006358381502890174,0.007514450867052023,0.005202312138728324,0.005202312138728324,0.004913294797687861,0.005202312138728324,0.002023121387283237,0.005780346820809248,0.004624277456647399,0.05466943641618497,0.04772398843930636,0.006936416184971098,0.04656791907514451,0.004624277456647399,0.004335260115606936,0.004624277456647399,0.005202312138728324,0.003179190751445087,0.04165462427745665,0.005202312138728324,0.004624277456647399,0.005202312138728324
S4_D11 hbo,0.0,0.0015237265999129299,0.00500653025685677,0.024728656568537673,0.013931214627775359,0.0037004788855028296,0.006747932085328689,0.012625163256421419,0.023204929968624742,0.03443772236650504,0.015237265999129298,0.03848723222193866,0.04392911293591341,0.0056595559425337396,0.03805188176482068,0.01044841097083152,0.01545494122768829,0.029648867338207256,0.03674583039346674,0.04131701019320553,0.015150946511942112,0.01950445108312191,0.041666041163136325,0.04732559710567007,0.04732559710567007,0.046237220962875115,0.04262306156455947,0.00957771005659556,0.013060513713539399,0.0032651284283848497,0.0056595559425337396,0.00979538528515455,0.00848933391380061,0.0087070091423596,0.0060949063996517195,0.007183282542446669,0.00130605137135394,0.00848933391380061,0.00544188071397475,0.046237220962875115,0.05189677690540885,0.006965607313887679,0.04776094756278804,0.0056595559425337396,0.00457117979973879,0.0056595559425337396,0.006747932085328689,0.00500653025685677,0.04754327233422905,0.00936003482803657,0.00805398345668263,0.006747932085328689
S5_D3 hbo,0.020522388059701493,0.05482301331181928,0.02117159136748689,0.013091216216216216,0.017244856797095604,0.02083753529649052,0.04787086526825332,0.01393581081081081,0.02572862041145623,0.012246621621621621,0.011824324324324325,0.012246621621621621,0.011824324324324325,0.07615217829770068,0.023862948769665188,0.029037666397741024,0.014358108108108109,0.01266891891891892,0.0071790540540540545,0.01266891891891892,0.008023648648648648,0.01266891891891892,0.0071790540540540545,0.010557432432432432,0.012246621621621621,0.011402027027027027,0.012246621621621621,0.023037263009277935,0.0071790540540540545,0.027701442113755546,0.02785901573215006,0.029636446147640175,0.028634277934651068,0.007601351351351352,0.028634277934651068,0.031256302944735775,0.028054407018959258,0.028035498184751918,0.011086879790238,0.010557432432432432,0.01097972972972973,0.0153980939895119,0.011824324324324325,0.02956711375554659,0.02761320088745462,0.0008445945945945946,0.012776068979427188,0.02456887858007261,0.01393581081081081,0.0071790540540540545,0.015240520371117386,0.0071790540540540545
S5_D5 hbo,0.013761467889908258,0.016617241255733946,0.03689659188646789,0.017015929615825688,0.019235593463302753,0.03657853712729358,0.020353264764908258,0.01416015625,0.029800835005733946,0.017918577981651376,0.014404296875,0.015159116972477064,0.018577085722477064,0.021500053755733946,0.05068717746559633,0.04382884174311927,0.014892578125,0.018747312213302753,0.010764585722477064,0.019309507597477064,0.011497007597477064,0.014012327981651376,0.01256988245412844,0.014352780963302753,0.01835534331995413,0.015085202838302753,0.019553648222477064,0.037044420154816515,0.01220703125,0.03396690438646789,0.020767631880733946,0.024918022505733946,0.03353013904816514,0.009691710865825688,0.018377741542431193,0.018621882167431193,0.001953125,0.023209038130733946,0.011689632310779817,0.01737878081995413,0.018991452838302753,0.009033203125,0.01762292144495413,0.0078125,0.006591796875,0.004808898365825688,0.025502616112385322,0.01896233514908257,0.01908776519495413,0.008544921875,0.01969475702408257,0.024355827121559634
S5_D7 hbo,0.012280701754385965,0.018876262626262626,0.03694510898458267,0.016414141414141416,0.027923976608187136,0.030103668261562997,0.024627857522594367,0.02409954811270601,0.026800903774587985,0.016414141414141416,0.01452020202020202,0.016098484848484848,0.016414141414141416,0.024873737373737374,0.039397262094630514,0.0552565124933546,0.015151515151515152,0.012941919191919192,0.011047979797979798,0.016098484848484848,0.005366161616161616,0.010101010101010102,0.004419191919191919,0.013888888888888888,0.015782828282828284,0.01452020202020202,0.016414141414141416,0.0394703615098352,0.021574295587453482,0.033120680489101544,0.024242424242424242,0.027259436469962782,0.03989234449760766,0.011822169059011164,0.022032828282828282,0.02498006379585327,0.0022095959595959595,0.02297979797979798,0.010944976076555025,0.014835858585858586,0.016098484848484848,0.018102073365231258,0.015151515151515152,0.005050505050505051,0.01526116427432217,0.005681818181818182,0.018839712918660288,0.024524853801169588,0.011047979797979798,0.005681818181818182,0.014453748006379585,0.017962519936204145
S6_D4 hbo,0.0,0.001383946223803875,0.005931198102016607,0.0166073546856465,0.01482799525504152,0.004744958481613286,0.006128904705417161,0.0860588600802124,0.014432582048240411,0.015025701858442072,0.013641755634638196,0.009885330170027679,0.015025701858442072,0.006326611308817715,0.011862396204033215,0.009292210359826018,0.08843133932101903,0.012455516014234875,0.009885330170027679,0.01383946223803875,0.008896797153024912,0.01324634242783709,0.009094503756425464,0.010083036773428233,0.011466982997232108,0.011466982997232108,0.015025701858442072,0.009885330170027679,0.01324634242783709,0.0035587188612099642,0.07637123651358527,0.080918488391798,0.009094503756425464,0.01047844998022934,0.006919731119019375,0.009885330170027679,0.0017793594306049821,0.00830367734282325,0.004349545274812179,0.008896797153024912,0.014234875444839857,0.008896797153024912,0.011466982997232108,0.006524317912218268,0.0071174377224199285,0.07597582330678415,0.007512850929221036,0.0071174377224199285,0.01482799525504152,0.08131390159859911,0.0787437157543919,0.007512850929221036
S6_D5 hbo,0.0,0.0016973811833171678,0.008001939864209506,0.022803650223357605,0.014548981571290009,0.005819592628516004,0.0072744907856450046,0.015518913676042677,0.022803650223357605,0.02863348861354353,0.013094083414161009,0.031553530689471455,0.03567574213467029,0.006789524733268671,0.04199054657723255,0.010184287099903006,0.015276430649854511,0.04417289381292605,0.02718883621808445,0.03664567423942296,0.03034111555853062,0.02645114137785003,0.035928470922528384,0.030098632532342455,0.04563803773172498,0.031311047663283284,0.03616070818704663,0.009456838021338506,0.011154219204655674,0.004122211445198836,0.004364694471387003,0.008971871968962172,0.009456838021338506,0.017226540621029768,0.00921435499515034,0.009699321047526674,0.0019398642095053346,0.008001939864209506,0.008739634704443928,0.0514678761219109,0.034463327003729456,0.009699321047526674,0.045395554705536814,0.008729388942774006,0.007516973811833172,0.008739634704443928,0.00994180407371484,0.007516973811833172,0.05583257059329791,0.010426770126091174,0.01237688009726643,0.00994180407371484
S6_D6 hbo,0.020737327188940093,0.002536231884057971,0.0,0.0287818072530555,0.02212983370066119,0.020737327188940093,0.007608695652173913,0.013043478260869565,0.01570994456688706,0.03036131703733387,0.03740399385560676,0.02443398116609898,0.025753022106458294,0.005797101449275362,0.01741968877312496,0.011956521739130435,0.01847826086956522,0.013666265945368329,0.051925131904094035,0.02031823949776264,0.0059273358712348895,0.03572263407466773,0.017680157617044015,0.04928705002337541,0.026245575368997527,0.04408435183329994,0.02321679022240032,0.007971014492753623,0.02104287717892206,0.018433179723502304,0.007608695652173913,0.010869565217391304,0.023143324651038535,0.025809790957056034,0.0069124423963133645,0.004347826086956522,0.0,0.008333333333333333,0.010869565217391304,0.04092533226474321,0.0498814532825753,0.025809790957056034,0.04128765110532291,0.0,0.021331730448139984,0.011231884057971014,0.0,0.023635877913577776,0.032563614506111,0.005072463768115942,0.011956521739130435,0.0
S6_D8 hbo,0.0,0.001582994120307553,0.006331976481230212,0.024224488841061154,0.013794663048394391,0.004975124378109453,0.008141112618724558,0.014246947082767978,0.023093778755127185,0.03465431463372791,0.014246947082767978,0.039430589996724844,0.04259657823733995,0.006331976481230212,0.039430589996724844,0.011080958842152872,0.015151515151515152,0.03126218437592601,0.03422932360142859,0.043275004288900326,0.016083376222336594,0.0192493644629517,0.040588593084733074,0.0464682855315897,0.048051279651897254,0.04669442754877649,0.043048862271713534,0.008593396653098146,0.011985526910900044,0.003844414292175486,0.004975124378109453,0.008593396653098146,0.007688828584350972,0.008367254635911352,0.007462686567164179,0.007914970601537766,0.0018091361374943465,0.007236544549977386,0.0033921302578018998,0.045789859480029324,0.04963427377220481,0.008141112618724558,0.04624214351440291,0.007010402532790593,0.005879692446856626,0.0033921302578018998,0.008141112618724558,0.005879692446856626,0.04669442754877649,0.008593396653098146,0.006331976481230212,0.008141112618724558
S7_D5 hbo,0.0,0.0,0.010253317249698432,0.0232514158369283,0.014776839565741858,0.0075392038600723766,0.0036188178528347406,0.013872135102533172,0.02144200691051093,0.028107174255279997,0.011459589867310011,0.030851955592811436,0.027504037946474207,0.0048250904704463205,0.03597861421766065,0.005428226779252111,0.014173703256936067,0.04656416756966736,0.01936169777759604,0.028107174255279997,0.04080370468810697,0.03263069657132342,0.046865735724070254,0.021472674858416307,0.04143750894481814,0.024488356402445257,0.028408742409682892,0.011459589867310011,0.014776839565741858,0.005428226779252111,0.004221954161640531,0.010253317249698432,0.013268998793727383,0.02415612030013698,0.012665862484921592,0.015681544028950542,0.0027141133896260556,0.010554885404101327,0.009379280734395127,0.04629326736316984,0.026900901637668416,0.012364294330518697,0.04023123632720656,0.012062726176115802,0.012364294330518697,0.009379280734395127,0.012967430639324488,0.012364294330518697,0.05684815276727116,0.013570566948130277,0.013902803050438551,0.012967430639324488
S7_D7 hbo,0.020833333333333332,0.001512532411408816,0.007346585998271392,0.02713155030570761,0.024384583373347417,0.026235234802650532,0.004537597234226448,0.013828867761452032,0.015927606517494156,0.02475471365920804,0.033797896859694615,0.011544063510355645,0.016729888920900157,0.006266205704407952,0.01774824738307884,0.006914433880726016,0.015341400172860847,0.021359518550529786,0.028828147507922786,0.015649508627036717,0.017964323441851532,0.040866384967508565,0.017964323441851532,0.03280954896123435,0.018334453727712155,0.03518638560773392,0.017162041038445534,0.011668107173725151,0.023304203079483977,0.024722702391241715,0.005185825410544511,0.011452031114952464,0.032285364448285794,0.03524840743941868,0.01790230161016678,0.01188418323249784,0.0019446845289541918,0.011019878997407088,0.006852412049041263,0.02898220173501072,0.0373471461954608,0.03163713627196773,0.03663689618745798,0.008210890233362144,0.030340679919331603,0.006420259931495887,0.008859118409680207,0.030124603860558916,0.03617473350619418,0.01188418323249784,0.010093552930631581,0.008859118409680207
S7_D8 hbo,0.00032175032175032174,0.0,0.00933075933075933,0.020482332982332985,0.014800514800514801,0.006756756756756757,0.0028957528957528956,0.013191763191763193,0.01855183105183105,0.022946647946647948,0.012548262548262547,0.02723177723177723,0.028306715806715805,0.004182754182754183,0.03205803205803206,0.0045045045045045045,0.01447876447876448,0.033345033345033345,0.027553527553527555,0.026376213876213875,0.03055896805896806,0.02712940212940213,0.04921317421317421,0.0402041652041652,0.04717298467298467,0.03677459927459927,0.028628466128466125,0.012226512226512226,0.015122265122265123,0.004826254826254826,0.003861003861003861,0.011583011583011582,0.013513513513513514,0.020482332982332985,0.010939510939510939,0.01447876447876448,0.0019305019305019305,0.011904761904761904,0.008255820755820755,0.04963729963729964,0.03431028431028431,0.012548262548262547,0.04116941616941617,0.010939510939510939,0.011904761904761904,0.014259389259389259,0.010939510939510939,0.012548262548262547,0.04985667485667485,0.013513513513513514,0.019085644085644088,0.010617760617760617
S8_D6 hbo,0.024193548387096774,0.002139364303178484,0.003667481662591687,0.02910126981623156,0.024737755343481348,0.025025632936351447,0.009779951100244499,0.011919315403422982,0.0162828298761732,0.027930041801403897,0.03433038883192681,0.024177774272418958,0.022870494518495148,0.007029339853300734,0.016452401608959697,0.012836185819070905,0.01589242053789731,0.014533874911270605,0.03533204511396798,0.020425506743434026,0.005586008360280779,0.026214606830191653,0.012258458868995977,0.059576859373767645,0.025485054026342772,0.053600441675210976,0.022870494518495148,0.008251833740831296,0.02067986434261377,0.02463522359807556,0.006112469437652812,0.008557457212713936,0.027080211373136685,0.030000394352866944,0.010119094565817494,0.004584352078239609,0.0009168704156479218,0.006723716381418093,0.006723716381418093,0.03463601230380945,0.046452795961826644,0.034839104030286304,0.03585850619134001,0.003667481662591687,0.021103793674580013,0.006723716381418093,0.003667481662591687,0.0317828693114599,0.026129820963798407,0.006112469437652812,0.006723716381418093,0.003667481662591687
S8_D8 hbo,0.0,0.001971830985915493,0.004225352112676056,0.021727028839704895,0.01323943661971831,0.0028169014084507044,0.010704225352112675,0.01436619718309859,0.01891012743125419,0.030778001341381624,0.012394366197183098,0.037293762575452714,0.03419517102615694,0.007042253521126761,0.03620389000670691,0.012957746478873239,0.014929577464788733,0.03564050972501677,0.029969818913480883,0.03419517102615694,0.024054325955734406,0.02289067739771965,0.03539570757880617,0.051770623742454724,0.06363849765258216,0.04948021462105969,0.035321931589537225,0.006478873239436619,0.011549295774647887,0.003943661971830986,0.005352112676056338,0.006478873239436619,0.004507042253521127,0.012431254191817571,0.004225352112676056,0.0067605633802816905,0.0014084507042253522,0.004788732394366197,0.010177733065057008,0.06254862508383635,0.03958417169684775,0.009014084507042254,0.0500804828973843,0.003943661971830986,0.006478873239436619,0.010177733065057008,0.004507042253521127,0.005633802816901409,0.05434272300469484,0.004788732394366197,0.010177733065057008,0.004507042253521127
S8_D15 hbo,0.0259792365791201,0.0020384391380314504,0.004659289458357601,0.0278411034380749,0.023924157121594514,0.025425483724843073,0.010483401281304601,0.013104251601630751,0.014691553188932338,0.02657366576993834,0.0315694594669551,0.022816651413040463,0.020778212275009013,0.006697728596389051,0.01741501881280565,0.011648223645894,0.014560279557367502,0.016118922816651414,0.02953102032892365,0.019904595501566966,0.009289920588697525,0.02910854110621146,0.014634236532896987,0.05006332566029712,0.029616995312976676,0.05588743748324412,0.022234240230745765,0.007571345369831101,0.021463238760850878,0.025585415684425586,0.0049504950495049506,0.006988934187536401,0.026750238049014986,0.0329681707666565,0.01159090698985865,0.006988934187536401,0.0023296447291788003,0.0052417006406523005,0.005955385454511838,0.0315694594669551,0.043131708128796076,0.036011500309694834,0.03548640578343548,0.0049504950495049506,0.02386684046555916,0.005955385454511838,0.0052417006406523005,0.03222582762477928,0.029268473065793974,0.0064065230052417,0.005955385454511838,0.0049504950495049506
S9_D2 hbo,0.0,0.0014638226683396068,0.0056461731493099125,0.024513621482859575,0.014010874111250522,0.00439146800501882,0.0075282308657465494,0.0123379339188624,0.02304979881451997,0.035434603902565656,0.014638226683396068,0.0390364729805737,0.04280058841344698,0.005437055625261397,0.03820000288437964,0.010037641154328732,0.015056461731493099,0.029579313229207226,0.03506324002365191,0.041755000793204405,0.015521567948773417,0.01970391842974372,0.04180187196238769,0.04723892758764908,0.04786628015979463,0.047448045111697604,0.04363705850964104,0.009410288582183186,0.012756168966959431,0.003345880384776244,0.005437055625261397,0.009619406106231703,0.008573818485989126,0.00878293601003764,0.006691760769552488,0.007737348389795065,0.0014638226683396068,0.008364700961940611,0.005018820577164366,0.044938634823115414,0.0501665729243283,0.0075282308657465494,0.047029810063600574,0.006273525721455458,0.0052279381012128815,0.005018820577164366,0.007109995817649519,0.005437055625261397,0.047029810063600574,0.008992053534086157,0.007737348389795065,0.007109995817649519
S9_D9 hbo,0.012681159420289856,0.016304347826086956,0.04118778412402378,0.015651105412441232,0.027796071803240473,0.031158934607763145,0.01861570890158138,0.019781831604305085,0.02752797528849516,0.014846815868205307,0.014209115281501341,0.007608209970081983,0.013774429809224074,0.020861988576757196,0.031455686365932316,0.0402169056222559,0.014209115281501341,0.012433947235497534,0.0070720169405913665,0.012165850720752224,0.011093464661770991,0.015114912382950617,0.011093464661770991,0.0081444029995726,0.007608209970081983,0.008948692543808525,0.014042526323969384,0.048527897579360456,0.02370177176827136,0.033173543925088395,0.023274857209464973,0.03386855499864009,0.04755701907759257,0.018404922873683803,0.028405117146520574,0.02947750320550181,0.002680965147453083,0.029441077048607066,0.010796712903601818,0.006267727396355441,0.014042526323969384,0.01907904961728251,0.010021078602789758,0.009115281501340482,0.01747047052881066,0.005630026809651474,0.019615242646773126,0.02780384271671135,0.013506333294478767,0.013672922252010724,0.01924563857481447,0.019615242646773126
S9_D11 hbo,0.011111111111111112,0.0,0.019686405365473048,0.028650995235486497,0.04745256237860451,0.01648986503311918,0.002689376961004034,0.03432441854674038,0.014402277669870678,0.01664342513737404,0.022647210186430268,0.010144097481614291,0.016419310390623703,0.0033617212012550424,0.01446121154771984,0.025914305161279613,0.014567458538771852,0.014237096800969504,0.012220064080216479,0.014626392416621014,0.01334063781396816,0.02063017746567724,0.01334063781396816,0.021479323339475737,0.013564752560718495,0.022599897073227418,0.015746966150372695,0.02528927403423145,0.046886465129405516,0.02047661736142238,0.006947557149260422,0.014626392416621014,0.04431495592409981,0.03735577801019307,0.030066238358483988,0.03253150057273769,0.0017929179740026895,0.011429852084267144,0.0083511795076116,0.012727227451566313,0.025230340156382293,0.04252203795009712,0.018896193369523716,0.007395786642761094,0.039325497617743246,0.008575294254361937,0.008516360376512775,0.0411773494695951,0.02203379982402842,0.011878081577767817,0.012385244949117653,0.008516360376512775
S10_D9 hbo,0.027039352326296374,0.008403361344537815,0.0350042456006793,0.015787046525927443,0.02419992387198782,0.034947149591543936,0.02472403595584575,0.014577050332328052,0.019998243199718914,0.012776330044212806,0.015768014522882325,0.01097560975609756,0.010365853658536586,0.023571135771381722,0.024790647966503675,0.03018329282932685,0.012195121951219513,0.011585365853658536,0.003601440576230492,0.011585365853658536,0.012195121951219513,0.01639680262348842,0.00853658536585366,0.013919714227154278,0.00975609756097561,0.018178490908558546,0.01097560975609756,0.03200304512048722,0.018188006910081107,0.054240476678476264,0.015110678417708547,0.02115114338418294,0.04760928761748602,0.02179896348783416,0.03683351389336222,0.023599683775949405,0.01755921880947501,0.018159458905513425,0.003601440576230492,0.011528269844523174,0.015148742423798787,0.025972096155535383,0.01516777442684391,0.022418235586917693,0.029564020730243314,0.0,0.023609199777471966,0.028315960530553685,0.014586566333850613,0.012195121951219513,0.006002400960384154,0.023599683775949405
S10_D10 hbo,0.021212121212121213,0.03677971424085414,0.028991992463495056,0.014248704663212436,0.019445752865441986,0.028991992463495056,0.0335374470089496,0.010582509028104882,0.03330193122939237,0.014248704663212436,0.01468048359240069,0.01079447322970639,0.013816925734024179,0.04304443397707646,0.03243837337101586,0.04001413094677343,0.012521588946459413,0.009287172240540115,0.009930915371329879,0.010362694300518135,0.007560056523787094,0.01187784581566965,0.008423614382163604,0.011226252158894647,0.011446066886481393,0.009930915371329879,0.013385146804835924,0.03849897943162192,0.014248704663212436,0.025961689433192027,0.05427853666195635,0.05622546710629612,0.0324462238970011,0.00885539331135186,0.004749568221070812,0.02119642016015073,0.0030224525043177895,0.044119956037054486,0.029180405087140836,0.011014287957293138,0.013816925734024179,0.006044905008635579,0.013173182603234416,0.004749568221070812,0.004749568221070812,0.01685507929031245,0.004749568221070812,0.02206782854451248,0.009287172240540115,0.008203799654576857,0.03567279007693515,0.004749568221070812
S10_D12 hbo,0.017676767676767676,0.029530226892035938,0.0335503273945485,0.01457286432160804,0.027456728084868785,0.026232170955789048,0.02700497436678341,0.016614638850819756,0.030239581747119437,0.013819095477386936,0.01507537688442211,0.007537688442211055,0.012814070351758794,0.03329907111314147,0.026458047814831735,0.035566722501395864,0.01306532663316583,0.009547738693467337,0.008291457286432161,0.010804020100502512,0.008542713567839196,0.012814070351758794,0.009547738693467337,0.008040201005025126,0.0067839195979899495,0.007035175879396985,0.01306532663316583,0.0423569869549769,0.019365768235114968,0.030283995736257042,0.03908431044109436,0.05647175270290848,0.04009568042231359,0.012324247500126898,0.014102076036749404,0.03000736003248566,0.0020100502512562816,0.041590528399573626,0.020905030201512614,0.006532663316582915,0.013567839195979899,0.014353332318156439,0.008542713567839196,0.007788944723618091,0.015873559717780823,0.01207933607431095,0.007788944723618091,0.029511192325262676,0.010552763819095477,0.011306532663316583,0.030729404598751335,0.007788944723618091
S11_D9 hbo,0.021241954692036984,0.009313154831199068,0.03072471331272664,0.019017033974281776,0.03153526554534142,0.029302650770074802,0.018582152462767454,0.019650622884134182,0.021065325893514245,0.014964607335447527,0.019031753040825338,0.005172413793103448,0.01264367816091954,0.016821216865374064,0.02082212677130585,0.026127012163301353,0.013793103448275862,0.01206896551724138,0.007228065245607696,0.010919540229885057,0.01206896551724138,0.018154965008764533,0.011781609195402299,0.01214992038323097,0.005172413793103448,0.013594061525698153,0.01264367816091954,0.03416562964152382,0.025707184242570215,0.03863788420108921,0.014485568624302517,0.0260313382307682,0.054523436768228226,0.025427187454002916,0.03274356709887198,0.029523771292467853,0.007530140633990339,0.02224418931395769,0.006653352601929535,0.007228065245607696,0.018177043608579878,0.02810906828308779,0.012415198105254707,0.016452905677545395,0.03102678870110928,0.0034482758620689655,0.01934854749575154,0.03451922176280893,0.01727817697670373,0.015517241379310345,0.013866698780993671,0.01934854749575154
S11_D11 hbo,0.02117194851642391,0.0,0.017896388834178992,0.026293576432852198,0.03408895516602109,0.026513197590263514,0.003367003367003367,0.024048907521516623,0.014860771128180598,0.017636126039097255,0.02738542966026717,0.006443262710672182,0.013457853058595863,0.004489337822671156,0.012886525421344363,0.014799808671674967,0.014590347923681257,0.01680453560676402,0.015901822308507545,0.01261610221684502,0.017365702834597915,0.030191265799436644,0.015972945174430785,0.02482969590676183,0.010912279714508127,0.02930887332001538,0.013738436672512809,0.020421641359431517,0.03325736473368786,0.026222453566928962,0.005601511868921339,0.012335518602928074,0.041603750285273036,0.04774610856319306,0.026824262432433278,0.02405906793093423,0.0028058361391694723,0.01122334455667789,0.003637426571502709,0.01618240592242449,0.028768026911016698,0.04019067180627069,0.022615508223679068,0.010942760942760943,0.035731815211852355,0.006422941891836971,0.012345679012345678,0.03991008819235374,0.02601299281893525,0.014870931537598204,0.01063169610059118,0.012065095398428732
S11_D12 hbo,0.016075852521130866,0.008561643835616438,0.029947537161177498,0.016722529874672105,0.027993842902943745,0.0228659647333139,0.01597566307199067,0.02290695132614398,0.01363031914893617,0.011303191489361703,0.015060295832118915,0.005984042553191489,0.010638297872340425,0.02363104779947537,0.017628788982803845,0.022251165840862723,0.012965425531914893,0.013962765957446808,0.0008561643835616438,0.012300531914893617,0.013962765957446808,0.015675094724570095,0.010970744680851064,0.007414019236374234,0.005651595744680851,0.009741146895948703,0.01163563829787234,0.026855326435441564,0.02580789128533955,0.03813574759545322,0.0036569148936170214,0.012874344214514718,0.04564084814922763,0.024045467793646167,0.06785102739726027,0.04544957738268726,0.027579422908772952,0.011303191489361703,0.0,0.005177972894199942,0.013398061789565725,0.03066252550276887,0.00855253570387642,0.04268981346546196,0.049498141941125035,0.0,0.032415840862722235,0.03151868988633051,0.015201471874089186,0.014295212765957447,0.004986702127659575,0.02609024336928009
S11_D13 hbo,0.009633911368015413,0.018304431599229287,0.030225334978064587,0.014697236919459141,0.03589184192909305,0.016982529827744983,0.013161248228685607,0.030111495108283804,0.022567479857139458,0.011169900058788948,0.011169900058788948,0.005291005291005291,0.010875955320399765,0.0264856103006392,0.01732574853962137,0.0264856103006392,0.014697236919459141,0.012933568489124045,0.0029394473838918285,0.01146384479717813,0.014109347442680775,0.015873015873015872,0.013227513227513227,0.004409171075837742,0.00823045267489712,0.008818342151675485,0.01146384479717813,0.031401113931621316,0.026257930561077638,0.022632045753433035,0.014418584103876333,0.02637177043085842,0.038945129182765666,0.02232280909223748,0.04451308818681972,0.0727130929443068,0.015169587423922683,0.019921977211636813,0.006662181035976797,0.003821281599059377,0.009700176366843033,0.027090490802757983,0.006172839506172839,0.02754754938441515,0.04635831353878882,0.00184522535196909,0.01938336170834565,0.042504748991582644,0.015285126396237508,0.013815402704291593,0.013961525522219163,0.012639623750734862
S12_D10 hbo,0.027719298245614036,0.02280701754385965,0.011578947368421053,0.010526315789473684,0.011578947368421053,0.010526315789473684,0.034035087719298245,0.009473684210526316,0.011578947368421053,0.009473684210526316,0.009473684210526316,0.009473684210526316,0.008421052631578947,0.05368421052631579,0.010526315789473684,0.009473684210526316,0.011578947368421053,0.010526315789473684,0.0,0.010526315789473684,0.011578947368421053,0.011578947368421053,0.007368421052631579,0.005263157894736842,0.007368421052631579,0.009473684210526316,0.009473684210526316,0.011578947368421053,0.010526315789473684,0.04035087719298246,0.009473684210526316,0.010526315789473684,0.02912280701754386,0.011578947368421053,0.06842105263157894,0.03789473684210526,0.13578947368421052,0.011578947368421053,0.0,0.005263157894736842,0.00631578947368421,0.020701754385964912,0.008421052631578947,0.08982456140350878,0.058596491228070174,0.0,0.024912280701754386,0.020350877192982456,0.010526315789473684,0.011578947368421053,0.0,0.011578947368421053
S12_D12 hbo,0.02413793103448276,0.03784534548673233,0.032603250532025084,0.014199890770071,0.020823367671707567,0.032688939528051374,0.03603551855967156,0.010103768432550519,0.037245522514548296,0.012834516657564172,0.013926815947569634,0.006007646095030038,0.011742217367558712,0.040763479538221056,0.029342360496431193,0.03531799092261624,0.013107591480065538,0.010103768432550519,0.006553795740032769,0.010103768432550519,0.010103768432550519,0.01474604041507373,0.01064991807755325,0.0070999453850355,0.005461496450027308,0.006007646095030038,0.012015292190060076,0.04205917248912409,0.015019115237575096,0.02878020301700597,0.03977287707866438,0.05023540932974256,0.0404207235541159,0.011469142545057346,0.009284543965046422,0.027345147742895346,0.002730748225013654,0.05523644513079343,0.017990922616245127,0.004915346805024577,0.012288367012561441,0.008465319497542327,0.007646095030038231,0.009284543965046422,0.007919169852539596,0.006007646095030038,0.009284543965046422,0.028335750202452024,0.011469142545057346,0.013107591480065538,0.030075895967909,0.009284543965046422
S12_D14 hbo,0.014778325123152709,0.022327686331050502,0.014778325123152709,0.01684088269454123,0.023208778885818415,0.014778325123152709,0.014778325123152709,0.008270255116344266,0.02581200688854179,0.017421602787456445,0.01916376306620209,0.010452961672473868,0.01684088269454123,0.022327686331050502,0.025952180704073048,0.025231286795626577,0.013356562137049941,0.008991149024790741,0.019744483159117306,0.009872241579558653,0.0066682686531298815,0.0134967359525812,0.007689535023429053,0.013937282229965157,0.014798349953942889,0.009872241579558653,0.015098722415795587,0.02755416716728744,0.01916376306620209,0.014778325123152709,0.041911970843846375,0.04351395730706076,0.022327686331050502,0.007108814930513838,0.0,0.016520485401898353,0.0,0.029877047538948296,0.08134086266971044,0.015379070046858106,0.018002322880371662,0.026372702150666828,0.018282670511434177,0.0,0.0,0.0701670070887901,0.0,0.014778325123152709,0.0113140293964516,0.008130081300813009,0.08698786495254116,0.0
S13_D6 hbo,0.015,0.002407152682255846,0.004470426409903714,0.02650618982118294,0.020911279229711144,0.017751031636863823,0.009284731774415406,0.013755158184319119,0.016942916093535074,0.030381705639614856,0.029786795048143053,0.02606946354883081,0.025725584594222833,0.007909215955983494,0.024099037138927096,0.015474552957359009,0.015474552957359009,0.023067400275103164,0.03659903713892709,0.0246939477303989,0.011970426409903714,0.029284731774415408,0.01628266850068776,0.04935006877579092,0.035725584594222835,0.042286795048143054,0.02435006877579092,0.0068775790921595595,0.018160247592847317,0.019126547455295736,0.006189821182943604,0.007565337001375516,0.019470426409903714,0.021970426409903716,0.011970426409903714,0.004470426409903714,0.0010316368638239339,0.005502063273727648,0.008002063273727648,0.05356946354883081,0.04356946354883082,0.02187757909215956,0.046506189821182944,0.0041265474552957355,0.018782668500687758,0.008002063273727648,0.004470426409903714,0.0180949105914718,0.03816024759284732,0.004470426409903714,0.008002063273727648,0.004470426409903714
S13_D11 hbo,0.02464788732394366,0.0015638963360142986,0.004915102770330653,0.03061712545154753,0.026622424448388273,0.026461944140266085,0.00580875781948168,0.012064343163538873,0.016282457928985892,0.02600567659756573,0.036989137685811024,0.017346033304383945,0.023154791123865624,0.0051385165326184095,0.0175694470666717,0.010277033065236819,0.015415549597855228,0.015362056161814498,0.0329676899646314,0.01980358468954927,0.008462976248914398,0.02877632191720475,0.014191493914334982,0.0459618749134665,0.020867160064947324,0.044621392339739954,0.021590894787851325,0.009830205540661306,0.02419161978124331,0.024031139473121122,0.00580875781948168,0.010500446827524575,0.0298398972926028,0.03489817367116012,0.013074425102896197,0.0071492403932082215,0.0008936550491510277,0.008936550491510277,0.006032171581769437,0.03143054034663746,0.048249505972384796,0.03157371395486412,0.03430817253835794,0.005585344057193923,0.02383447242885373,0.006255585344057194,0.006478999106344951,0.02978640385656207,0.02902648239751287,0.009159964253798034,0.009159964253798034,0.006478999106344951
S13_D13 hbo,0.020353982300884955,0.0,0.01911355596515129,0.02195674821692292,0.03402271348269585,0.019504516365384836,0.01072250397829397,0.028798269012810677,0.0129366106080207,0.014621232069056314,0.02258583383896782,0.007438551099611902,0.011319534282018111,0.010484378756482615,0.012613195342820181,0.018058020126160576,0.014553686934023286,0.0129366106080207,0.011845584952317714,0.012289780077619664,0.012613195342820181,0.022194873438734275,0.011966364812419146,0.02030418207420806,0.010672703751617076,0.025393536274027177,0.012289780077619664,0.0189607207867291,0.029836059943445258,0.026975122783317495,0.0038809831824062097,0.012357325212652691,0.04076119932683832,0.03208222189149275,0.029818315035089124,0.026534362156407056,0.00813518185668983,0.008732212160413972,0.008934847565513057,0.011778039817284685,0.02370891481299156,0.06773632211015582,0.014841612382511533,0.01622056348670277,0.053321159944590094,0.010704759069937836,0.011557659503829466,0.05500578140562571,0.01962529622548627,0.010672703751617076,0.015555988047945599,0.010672703751617076
S13_D15 hbo,0.017467248908296942,0.002064896755162242,0.00471976401179941,0.029029640221045715,0.02448635210160889,0.020712086666409037,0.007964601769911504,0.011799410029498525,0.016932668650410272,0.02802617511045845,0.03251149669590756,0.02129948087748451,0.024249333384859142,0.007079646017699115,0.020533034483646996,0.012389380530973451,0.015339233038348082,0.020533034483646996,0.029856629439270393,0.020709510376009585,0.011564967603148226,0.02867668843632054,0.017406706083909776,0.043428527263593156,0.030328090582370446,0.04372351251433061,0.022774407131171827,0.00943952802359882,0.023011425847921575,0.02189202766935889,0.006194690265486726,0.008849557522123894,0.025136865427470984,0.02702528629027064,0.013453388465947881,0.0058997050147492625,0.0017699115044247787,0.007079646017699115,0.00808311112828638,0.04254357151138076,0.0438999884066932,0.024251909675258594,0.04549342401875539,0.004424778761061947,0.021597042418621426,0.008378096379023843,0.005014749262536873,0.020712086666409037,0.03888523914415633,0.007964601769911504,0.008378096379023843,0.005014749262536873
S14_D12 hbo,0.03367274215514018,0.018900343642611683,0.011978097193702943,0.013004791238877482,0.013689253935660506,0.008555783709787816,0.03503461123224454,0.012662559890485968,0.013689253935660506,0.011293634496919919,0.01163586584531143,0.006160164271047228,0.01026694045174538,0.04361862020787908,0.01163586584531143,0.006160164271047228,0.012662559890485968,0.013689253935660506,0.0,0.011978097193702943,0.014373716632443531,0.01403148528405202,0.011293634496919919,0.004106776180698152,0.0054757015742642025,0.006160164271047228,0.01163586584531143,0.011978097193702943,0.012662559890485968,0.036738711657740425,0.0037645448323066393,0.010609171800136893,0.0329318289266637,0.014373716632443531,0.07072545989542539,0.04701976474240917,0.07660689966623623,0.011293634496919919,0.0,0.004449007529089665,0.009924709103353867,0.023321125905854626,0.005817932922655715,0.0982168688301333,0.06455823930791649,0.0,0.026743439389769752,0.02503933896427387,0.012320328542094456,0.01403148528405202,0.00513347022587269,0.014373716632443531
S14_D13 hbo,0.01925925925925926,0.005925925925925926,0.024040155369549756,0.01958914601455222,0.03255101482575633,0.019604464139176103,0.015173149515837847,0.02625143607418349,0.011816838995568686,0.012192680124733301,0.01737567700640079,0.005908419497784343,0.009231905465288036,0.019613217353246896,0.01070901033973412,0.014797308386673232,0.013293943870014771,0.012186115214180207,0.006660101756113573,0.0103397341211226,0.015140324963072379,0.021064062585480606,0.014401772525849335,0.012579462771486406,0.009231905465288036,0.017010777394824664,0.0103397341211226,0.019226434706493788,0.026996553421959626,0.03109360468296953,0.003692762186115214,0.014784178565567043,0.04107500410306909,0.02773510585918267,0.04551944854751354,0.04069478636686909,0.021103452048799168,0.01070901033973412,0.0,0.009245035286394223,0.01627003665408392,0.05032222769298102,0.011834345423710268,0.03514907817714317,0.07106296843372176,0.0,0.018112041140106134,0.051069533344274845,0.018844028666776085,0.012186115214180207,0.0048005908419497785,0.012186115214180207
S14_D14 hbo,0.0,0.0012804097311139564,0.0,0.01856594110115237,0.0147247119078105,0.0,0.0,0.011504089471896312,0.012163892445582587,0.019206145966709345,0.02112676056338028,0.011523687580025609,0.01856594110115237,0.0012804097311139564,0.014705113799681202,0.01088348271446863,0.0147247119078105,0.01468551569155191,0.02176696542893726,0.01088348271446863,0.012124696229323995,0.01598552353079516,0.010863884606339334,0.015364916773367477,0.02108756434712169,0.01088348271446863,0.016645326504481434,0.014084507042253521,0.02112676056338028,0.0,0.03067103922234707,0.0357926781468029,0.008322663252240717,0.010223679740782355,0.0,0.0019206145966709346,0.0,0.014084507042253521,0.1078614544409313,0.021727769212678667,0.020486555697823303,0.05294102275993624,0.02492879354046356,0.0,0.0,0.15377982178787009,0.0,0.0,0.0178865400193368,0.008962868117797696,0.13465206825367793,0.0
S14_D16 hbo,0.0006662225183211193,0.002380952380952381,0.056896989308714827,0.016038514006535325,0.013990672884743505,0.05356587671710923,0.003997335109926716,0.013324450366422385,0.013990672884743505,0.011658894070619586,0.011658894070619586,0.005996002664890073,0.011325782811459028,0.015186700929539039,0.0429443862821611,0.03694838361727103,0.013324450366422385,0.014656895403064623,0.0,0.012991339107261825,0.013657561625582945,0.013657561625582945,0.010992671552298468,0.003997335109926716,0.005996002664890073,0.006662225183211193,0.011992005329780146,0.038182481520256335,0.013324450366422385,0.05223343168046699,0.0036642238507661557,0.010326449033977348,0.04494305383712446,0.014990006662225183,0.06194283176295168,0.03099045081057073,0.01590209701468862,0.010992671552298468,0.0,0.0043304463690872754,0.009993337774816789,0.01337362393325085,0.005996002664890073,0.03032422829224961,0.029707179340756958,0.0,0.07689476856698708,0.01780241743599505,0.012991339107261825,0.015323117921385743,0.004996668887408394,0.06227594302211224
S15_D13 hbo,0.020860495436766623,0.00847457627118644,0.02520557850287436,0.019747724016300847,0.032526416159100194,0.024804612086756227,0.01357243153613665,0.025882049301970213,0.01999864808258167,0.012167768854895221,0.01921310212814334,0.00432050274941084,0.009819324430479183,0.01709919489221019,0.016079111749288964,0.019965874326985808,0.014139827179890024,0.012961508248232521,0.008223652204905616,0.010997643362136685,0.015710919088766692,0.021970706407576472,0.014925373134328358,0.01475075046779415,0.008248232521602514,0.018544824767946447,0.010604870384917517,0.024553688020475403,0.026266628840290417,0.027136669633374334,0.010572096629321655,0.020642345126081662,0.04125191649656746,0.02965973672432458,0.028214106848588324,0.03605317951517374,0.006786215768068325,0.018427556173705,0.003911342894393742,0.008231845643804582,0.01894579118406458,0.04686800677187725,0.009535626608602497,0.017391086152985843,0.04751989725427621,0.0,0.016220960660227306,0.06369169728110971,0.018970371500761477,0.012961508248232521,0.01241049948227708,0.012961508248232521
S15_D15 hbo,0.014506411286768328,0.0016151361329026304,0.006460544531610522,0.032543826446752355,0.02835043528307659,0.019121085952204415,0.006691278264882325,0.014766958929395477,0.016653012760353206,0.022501724021714894,0.026966032883445762,0.016502646956647982,0.022963191488258504,0.00692201199815413,0.02208044051995458,0.007614213197969543,0.01661282879556991,0.02369557665285721,0.02304355941782509,0.02111732162208407,0.018348516822822417,0.028811902749620196,0.024658695550727718,0.036627035771506194,0.030276673078817606,0.03939584057076785,0.022732457754986703,0.009690816797415782,0.026504565416902152,0.018198151019117197,0.003461005999077065,0.008767881864328565,0.02419722808418411,0.028621352981131686,0.019311635720692926,0.011305952930318412,0.002076603599446239,0.008767881864328565,0.004885592363491183,0.03524263337187537,0.039124922872712756,0.024889429283999523,0.03847290563768063,0.007614213197969543,0.023274293151096893,0.005116326096762987,0.00853714813105676,0.022812825684553284,0.04958830879951053,0.010844485463774804,0.008808065829111856,0.008306414397784956
S15_D16 hbo,0.10897734231475811,0.0,0.009577464788732394,0.014929577464788733,0.01436619718309859,0.06139007960808328,0.09033680342927128,0.011267605633802818,0.01380281690140845,0.01323943661971831,0.01380281690140845,0.0050704225352112674,0.012957746478873239,0.004507042253521127,0.010140845070422535,0.0050704225352112674,0.024672382118799754,0.012394366197183098,0.003943661971830986,0.011267605633802818,0.011830985915492958,0.014084507042253521,0.011549295774647887,0.005633802816901409,0.0050704225352112674,0.0067605633802816905,0.01267605633802817,0.01380281690140845,0.015211267605633802,0.005352112676056338,0.005352112676056338,0.01267605633802817,0.014929577464788733,0.01436619718309859,0.011267605633802818,0.012394366197183098,0.0028169014084507044,0.012957746478873239,0.0033802816901408453,0.0036619718309859155,0.012112676056338029,0.009295774647887323,0.007605633802816901,0.010704225352112675,0.008732394366197183,0.0036619718309859155,0.012112676056338029,0.008732394366197183,0.01436619718309859,0.14649112063686467,0.008169014084507042,0.120526638089406
S16_D14 hbo,0.0176678445229682,0.02277360674032779,0.021679514836607877,0.016046681254558718,0.02092563525630617,0.021314817535367906,0.0176678445229682,0.01088421698329609,0.03006755276512721,0.016046681254558718,0.01787016776075857,0.008331335874616295,0.014952589350838803,0.02277360674032779,0.02647728180663053,0.02423239594528767,0.013858497447118891,0.011556909531872998,0.01312910284463895,0.011670313639679067,0.010098120326913113,0.014166492694455829,0.010154822380816149,0.0087527352297593,0.009733423025673144,0.006199854121079504,0.014952589350838803,0.030796947367607148,0.01787016776075857,0.0176678445229682,0.03573260342325764,0.043755944050536996,0.027879368957687382,0.010154822380816149,0.005470459518599562,0.02423239594528767,0.0,0.03298513117504697,0.05777681556110548,0.010098120326913113,0.016776075857038657,0.023503001342807733,0.011921606833112969,0.005470459518599562,0.0040116703136396795,0.05553192969976263,0.005470459518599562,0.02313830404156776,0.013380396038072853,0.010576221735959153,0.07634416084826273,0.005470459518599562
S16_D16 hbo,0.03365384615384615,0.0,0.052626137303556655,0.013776881720430107,0.014112903225806451,0.07330438378825477,0.02326302729528536,0.013440860215053764,0.014112903225806451,0.011760752688172043,0.011760752688172043,0.006048387096774193,0.0114247311827957,0.00571236559139785,0.04094292803970223,0.03489454094292804,0.013440860215053764,0.01478494623655914,0.0,0.01310483870967742,0.013776881720430107,0.013776881720430107,0.011088709677419355,0.004032258064516129,0.006048387096774193,0.006384408602150538,0.012096774193548387,0.03853908188585608,0.013440860215053764,0.04965363937138131,0.003696236559139785,0.010416666666666666,0.04536290322580645,0.015120967741935484,0.04502688172043011,0.014448924731182795,0.003360215053763441,0.011088709677419355,0.0,0.004368279569892473,0.010080645161290322,0.011088709677419355,0.006048387096774193,0.01310483870967742,0.010752688172043012,0.0,0.05805417700578991,0.010752688172043012,0.012768817204301076,0.044303143093465676,0.005040322580645161,0.09411186931348221
