,S1_D1 hbo,S1_D3 hbo,S2_D1 hbo,S2_D2 hbo,S2_D4 hbo,S3_D1 hbo,S3_D3 hbo,S3_D4 hbo,S3_D5 hbo,S4_D2 hbo,S4_D4 hbo,S4_D6 hbo,S4_D11 hbo,S5_D3 hbo,S5_D5 hbo,S5_D7 hbo,S6_D4 hbo,S6_D5 hbo,S6_D6 hbo,S6_D8 hbo,S7_D5 hbo,S7_D7 hbo,S7_D8 hbo,S8_D6 hbo,S8_D8 hbo,S8_D15 hbo,S9_D2 hbo,S9_D9 hbo,S9_D11 hbo,S10_D9 hbo,S10_D10 hbo,S10_D12 hbo,S11_D9 hbo,S11_D11 hbo,S11_D12 hbo,S11_D13 hbo,S12_D10 hbo,S12_D12 hbo,S12_D14 hbo,S13_D6 hbo,S13_D11 hbo,S13_D13 hbo,S13_D15 hbo,S14_D12 hbo,S14_D13 hbo,S14_D14 hbo,S14_D16 hbo,S15_D13 hbo,S15_D15 hbo,S15_D16 hbo,S16_D14 hbo,S16_D16 hbo
S1_D1 hbo,0.038461538461538464,0.0,0.057692307692307696,0.057692307692307696,0.057692307692307696,0.019230769230769232,0.057692307692307696,0.057692307692307696,0.057692307692307696,0.057692307692307696,0.0,0.0,0.0,0.0,0.038461538461538464,0.0,0.0,0.0,0.057692307692307696,0.0,0.0,0.0,0.0,0.0,0.057692307692307696,0.0,0.0,0.0,0.0,0.057692307692307696,0.0,0.019230769230769232,0.0,0.0,0.057692307692307696,0.057692307692307696,0.0,0.0,0.057692307692307696,0.0,0.0,0.0,0.0,0.0,0.0,0.0,0.0,0.038461538461538464,0.038461538461538464,0.057692307692307696,0.0,0.0
S1_D3 hbo,0.0,0.12941176470588237,0.0,0.0,0.0,0.01764705882352941,0.0,0.0,0.0,0.0,0.0,0.08235294117647059,0.029411764705882353,0.0,0.0,0.07058823529411765,0.0,0.07058823529411765,0.0,0.06470588235294118,0.01764705882352941,0.0,0.0,0.0,0.0,0.041176470588235294,0.06470588235294118,0.0,0.0,0.0,0.12352941176470589,0.041176470588235294,0.0,0.0,0.0,0.0,0.12352941176470589,0.023529411764705882,0.0,0.06470588235294118,0.01764705882352941,0.0,0.0,0.0,0.0,0.0,0.01764705882352941,0.0,0.0,0.0,0.0,0.0
S2_D1 hbo,0.013071895424836602,0.013071895424836602,0.0718954248366013,0.06535947712418301,0.06535947712418301,0.06535947712418301,0.06535947712418301,0.0457516339869281,0.0392156862745098,0.0718954248366013,0.0,0.0,0.0,0.0,0.013071895424836602,0.0,0.0,0.0,0.05228758169934641,0.0,0.0,0.0,0.0,0.0,0.0457516339869281,0.0,0.0,0.0,0.0,0.026143790849673203,0.032679738562091505,0.06535947712418301,0.0,0.0,0.032679738562091505,0.032679738562091505,0.032679738562091505,0.0,0.058823529411764705,0.0,0.0,0.0,0.0,0.0,0.0,0.0,0.013071895424836602,0.013071895424836602,0.013071895424836602,0.05228758169934641,0.0,0.0
S2_D2 hbo,0.013605442176870748,0.006802721088435374,0.07482993197278912,0.06802721088435375,0.06802721088435375,0.061224489795918366,0.06802721088435375,0.047619047619047616,0.04081632653061224,0.07482993197278912,0.0,0.0,0.0,0.0,0.013605442176870748,0.0,0.0,0.0,0.05442176870748299,0.0,0.0,0.0,0.0,0.0,0.047619047619047616,0.0,0.0,0.0,0.0,0.027210884353741496,0.027210884353741496,0.061224489795918366,0.0,0.0,0.034013605442176874,0.034013605442176874,0.027210884353741496,0.0,0.061224489795918366,0.0,0.0,0.0,0.0,0.0,0.0,0.0,0.006802721088435374,0.013605442176870748,0.013605442176870748,0.05442176870748299,0.0,0.0
S2_D4 hbo,0.013605442176870748,0.006802721088435374,0.07482993197278912,0.06802721088435375,0.06802721088435375,0.061224489795918366,0.06802721088435375,0.047619047619047616,0.04081632653061224,0.07482993197278912,0.0,0.0,0.0,0.0,0.013605442176870748,0.0,0.0,0.0,0.05442176870748299,0.0,0.0,0.0,0.0,0.0,0.047619047619047616,0.0,0.0,0.0,0.0,0.027210884353741496,0.027210884353741496,0.061224489795918366,0.0,0.0,0.034013605442176874,0.034013605442176874,0.027210884353741496,0.0,0.061224489795918366,0.0,0.0,0.0,0.0,0.0,0.0,0.0,0.006802721088435374,0.013605442176870748,0.013605442176870748,0.05442176870748299,0.0,0.0
S3_D1 hbo,0.0,0.042735042735042736,0.06837606837606838,0.05982905982905983,0.05982905982905983,0.09401709401709402,0.05982905982905983,0.03418803418803419,0.02564102564102564,0.06837606837606838,0.0,0.0,0.0,0.0,0.0,0.0,0.0,0.0,0.042735042735042736,0.0,0.0,0.0,0.0,0.0,0.03418803418803419,0.0,0.0,0.0,0.0,0.008547008547008548,0.06837606837606838,0.10256410256410256,0.0,0.0,0.017094017094017096,0.017094017094017096,0.06837606837606838,0.0,0.05128205128205128,0.0,0.0,0.0,0.0,0.0,0.0,0.0,0.03418803418803419,0.0,0.0,0.042735042735042736,0.0,0.0
S3_D3 hbo,0.013605442176870748,0.006802721088435374,0.07482993197278912,0.06802721088435375,0.06802721088435375,0.061224489795918366,0.06802721088435375,0.047619047619047616,0.04081632653061224,0.07482993197278912,0.0,0.0,0.0,0.0,0.013605442176870748,0.0,0.0,0.0,0.05442176870748299,0.0,0.0,0.0,0.0,0.0,0.047619047619047616,0.0,0.0,0.0,0.0,0.027210884353741496,0.027210884353741496,0.061224489795918366,0.0,0.0,0.034013605442176874,0.034013605442176874,0.027210884353741496,0.0,0.061224489795918366,0.0,0.0,0.0,0.0,0.0,0.0,0.0,0.006802721088435374,0.013605442176870748,0.013605442176870748,0.05442176870748299,0.0,0.0
S3_D4 hbo,0.016666666666666666,0.0,0.06666666666666667,0.06666666666666667,0.06666666666666667,0.05,0.06666666666666667,0.058333333333333334,0.05,0.06666666666666667,0.0,0.0,0.0,0.0,0.016666666666666666,0.0,0.0,0.0,0.06666666666666667,0.0,0.0,0.0,0.0,0.0,0.058333333333333334,0.0,0.0,0.0,0.0,0.03333333333333333,0.008333333333333333,0.05,0.0,0.0,0.041666666666666664,0.041666666666666664,0.008333333333333333,0.0,0.06666666666666667,0.0,0.0,0.0,0.0,0.0,0.0,0.0,0.0,0.016666666666666666,0.016666666666666666,0.06666666666666667,0.0,0.0
S3_D5 hbo,0.018518518518518517,0.0,0.06481481481481481,0.06481481481481481,0.06481481481481481,0.046296296296296294,0.06481481481481481,0.06481481481481481,0.05555555555555555,0.06481481481481481,0.0,0.0,0.0,0.0,0.018518518518518517,0.0,0.0,0.0,0.06481481481481481,0.0,0.0,0.0,0.0,0.0,0.06481481481481481,0.0,0.0,0.0,0.0,0.037037037037037035,0.0,0.046296296296296294,0.0,0.0,0.046296296296296294,0.046296296296296294,0.0,0.0,0.06481481481481481,0.0,0.0,0.0,0.0,0.0,0.0,0.0,0.0,0.018518518518518517,0.018518518518518517,0.06481481481481481,0.0,0.0
S4_D2 hbo,0.013071895424836602,0.013071895424836602,0.0718954248366013,0.06535947712418301,0.06535947712418301,0.06535947712418301,0.06535947712418301,0.0457516339869281,0.0392156862745098,0.0718954248366013,0.0,0.0,0.0,0.0,0.013071895424836602,0.0,0.0,0.0,0.05228758169934641,0.0,0.0,0.0,0.0,0.0,0.0457516339869281,0.0,0.0,0.0,0.0,0.026143790849673203,0.032679738562091505,0.06535947712418301,0.0,0.0,0.032679738562091505,0.032679738562091505,0.032679738562091505,0.0,0.058823529411764705,0.0,0.0,0.0,0.0,0.0,0.0,0.0,0.013071895424836602,0.013071895424836602,0.013071895424836602,0.05228758169934641,0.0,0.0
S4_D4 hbo,0.0,0.0,0.0,0.0,0.0,0.0,0.0,0.0,0.0,0.0,0.0,0.0,0.0,0.0,0.0,0.0,0.0,0.0,0.0,0.0,0.0,0.0,0.0,0.0,0.0,0.0,0.0,0.0,0.0,0.0,0.0,0.0,0.0,0.0,0.0,0.0,0.0,0.0,0.0,0.0,0.0,0.0,0.0,0.0,0.0,0.0,0.0,0.0,0.0,0.0,0.0,0.0
S4_D6 hbo,0.0,0.06779661016949153,0.0,0.0,0.0,0.0,0.0,0.0,0.0,0.0,0.0,0.10734463276836158,0.05649717514124294,0.0,0.0,0.10734463276836158,0.0,0.10734463276836158,0.0,0.1016949152542373,0.05649717514124294,0.0,0.0,0.0,0.0,0.03954802259887006,0.07909604519774012,0.0,0.0,0.0,0.062146892655367235,0.0,0.0,0.0,0.0,0.0,0.062146892655367235,0.005649717514124294,0.0,0.1016949152542373,0.04519774011299435,0.0,0.0,0.0,0.0,0.0,0.0,0.0,0.0,0.0,0.0,0.0
S4_D11 hbo,0.0,0.03260869565217391,0.0,0.0,0.0,0.0,0.0,0.0,0.0,0.0,0.0,0.10869565217391304,0.09782608695652174,0.0,0.0,0.10869565217391304,0.0,0.10869565217391304,0.0,0.10869565217391304,0.09782608695652174,0.0,0.0,0.0,0.0,0.021739130434782608,0.07608695652173914,0.0,0.0,0.0,0.021739130434782608,0.0,0.0,0.0,0.0,0.0,0.021739130434782608,0.0,0.0,0.10869565217391304,0.08695652173913043,0.0,0.0,0.0,0.0,0.0,0.0,0.0,0.0,0.0,0.0,0.0
S5_D3 hbo,0.0,0.0,0.0,0.0,0.0,0.0,0.0,0.0,0.0,0.0,0.0,0.0,0.0,0.0,0.0,0.0,0.0,0.0,0.0,0.0,0.0,0.0,0.0,0.0,0.0,0.0,0.0,0.0,0.0,0.0,0.0,0.0,0.0,0.0,0.0,0.0,0.0,0.0,0.0,0.0,0.0,0.0,0.0,0.0,0.0,0.0,0.0,0.0,0.0,0.0,0.0,0.0
S5_D5 hbo,0.038461538461538464,0.0,0.057692307692307696,0.057692307692307696,0.057692307692307696,0.019230769230769232,0.057692307692307696,0.057692307692307696,0.057692307692307696,0.057692307692307696,0.0,0.0,0.0,0.0,0.038461538461538464,0.0,0.0,0.0,0.057692307692307696,0.0,0.0,0.0,0.0,0.0,0.057692307692307696,0.0,0.0,0.0,0.0,0.057692307692307696,0.0,0.019230769230769232,0.0,0.0,0.057692307692307696,0.057692307692307696,0.0,0.0,0.057692307692307696,0.0,0.0,0.0,0.0,0.0,0.0,0.0,0.0,0.038461538461538464,0.038461538461538464,0.057692307692307696,0.0,0.0
S5_D7 hbo,0.0,0.056818181818181816,0.0,0.0,0.0,0.0,0.0,0.0,0.0,0.0,0.0,0.09659090909090909,0.056818181818181816,0.0,0.0,0.11931818181818182,0.0,0.10795454545454546,0.0,0.10795454545454546,0.07386363636363637,0.0,0.0,0.0,0.0,0.03977272727272727,0.07954545454545454,0.0,0.0,0.0,0.05113636363636364,0.0,0.0,0.0,0.0,0.0,0.05113636363636364,0.0,0.0,0.11363636363636363,0.045454545454545456,0.0,0.0,0.0,0.0,0.0,0.0,0.0,0.0,0.0,0.0,0.0
S6_D4 hbo,0.0,0.0,0.0,0.0,0.0,0.0,0.0,0.0,0.0,0.0,0.0,0.0,0.0,0.0,0.0,0.0,0.0,0.0,0.0,0.0,0.0,0.0,0.0,0.0,0.0,0.0,0.0,0.0,0.0,0.0,0.0,0.0,0.0,0.0,0.0,0.0,0.0,0.0,0.0,0.0,0.0,0.0,0.0,0.0,0.0,0.0,0.0,0.0,0.0,0.0,0.0,0.0
S6_D5 hbo,0.0,0.05747126436781609,0.0,0.0,0.0,0.0,0.0,0.0,0.0,0.0,0.0,0.09770114942528736,0.05747126436781609,0.0,0.0,0.11494252873563218,0.0,0.10919540229885058,0.0,0.10919540229885058,0.06896551724137931,0.0,0.0,0.0,0.0,0.040229885057471264,0.08045977011494253,0.0,0.0,0.0,0.05172413793103448,0.0,0.0,0.0,0.0,0.0,0.05172413793103448,0.0,0.0,0.11494252873563218,0.04597701149425287,0.0,0.0,0.0,0.0,0.0,0.0,0.0,0.0,0.0,0.0,0.0
S6_D6 hbo,0.015384615384615385,0.0,0.06923076923076923,0.06923076923076923,0.06923076923076923,0.05384615384615385,0.06923076923076923,0.05384615384615385,0.046153846153846156,0.06923076923076923,0.0,0.0,0.0,0.0,0.015384615384615385,0.0,0.0,0.0,0.06153846153846154,0.0,0.0,0.0,0.0,0.0,0.05384615384615385,0.0,0.0,0.0,0.0,0.03076923076923077,0.015384615384615385,0.05384615384615385,0.0,0.0,0.038461538461538464,0.038461538461538464,0.015384615384615385,0.0,0.06923076923076923,0.0,0.0,0.0,0.0,0.0,0.0,0.0,0.0,0.015384615384615385,0.015384615384615385,0.06153846153846154,0.0,0.0
S6_D8 hbo,0.0,0.05454545454545454,0.0,0.0,0.0,0.0,0.0,0.0,0.0,0.0,0.0,0.09696969696969697,0.06060606060606061,0.0,0.0,0.11515151515151516,0.0,0.10909090909090909,0.0,0.10909090909090909,0.07272727272727272,0.0,0.0,0.0,0.0,0.04242424242424243,0.07878787878787878,0.0,0.0,0.0,0.048484848484848485,0.0,0.0,0.0,0.0,0.0,0.048484848484848485,0.0,0.0,0.11515151515151516,0.048484848484848485,0.0,0.0,0.0,0.0,0.0,0.0,0.0,0.0,0.0,0.0,0.0
S7_D5 hbo,0.0,0.012048192771084338,0.0,0.0,0.0,0.0,0.0,0.0,0.0,0.0,0.0,0.0963855421686747,0.08433734939759036,0.0,0.0,0.14457831325301204,0.0,0.12048192771084337,0.0,0.12048192771084337,0.14457831325301204,0.0,0.0,0.0,0.0,0.0,0.060240963855421686,0.0,0.0,0.0,0.0,0.0,0.0,0.0,0.0,0.0,0.0,0.0,0.0,0.13253012048192772,0.08433734939759036,0.0,0.0,0.0,0.0,0.0,0.0,0.0,0.0,0.0,0.0,0.0
S7_D7 hbo,0.0,0.0,0.0,0.0,0.0,0.0,0.0,0.0,0.0,0.0,0.0,0.0,0.0,0.0,0.0,0.0,0.0,0.0,0.0,0.0,0.0,0.0,0.0,0.0,0.0,0.0,0.0,0.0,0.0,0.0,0.0,0.0,0.0,0.0,0.0,0.0,0.0,0.0,0.0,0.0,0.0,0.0,0.0,0.0,0.0,0.0,0.0,0.0,0.0,0.0,0.0,0.0
S7_D8 hbo,0.0,0.0,0.0,0.0,0.0,0.0,0.0,0.0,0.0,0.0,0.0,0.0,0.0,0.0,0.0,0.0,0.0,0.0,0.0,0.0,0.0,0.0,0.0,0.0,0.0,0.0,0.0,0.0,0.0,0.0,0.0,0.0,0.0,0.0,0.0,0.0,0.0,0.0,0.0,0.0,0.0,0.0,0.0,0.0,0.0,0.0,0.0,0.0,0.0,0.0,0.0,0.0
S8_D6 hbo,0.0,0.0,0.0,0.0,0.0,0.0,0.0,0.0,0.0,0.0,0.0,0.0,0.0,0.0,0.0,0.0,0.0,0.0,0.0,0.0,0.0,0.0,0.0,0.0,0.0,0.0,0.0,0.0,0.0,0.0,0.0,0.0,0.0,0.0,0.0,0.0,0.0,0.0,0.0,0.0,0.0,0.0,0.0,0.0,0.0,0.0,0.0,0.0,0.0,0.0,0.0,0.0
S8_D8 hbo,0.016666666666666666,0.0,0.06666666666666667,0.06666666666666667,0.06666666666666667,0.05,0.06666666666666667,0.058333333333333334,0.05,0.06666666666666667,0.0,0.0,0.0,0.0,0.016666666666666666,0.0,0.0,0.0,0.06666666666666667,0.0,0.0,0.0,0.0,0.0,0.058333333333333334,0.0,0.0,0.0,0.0,0.03333333333333333,0.008333333333333333,0.05,0.0,0.0,0.041666666666666664,0.041666666666666664,0.008333333333333333,0.0,0.06666666666666667,0.0,0.0,0.0,0.0,0.0,0.0,0.0,0.0,0.016666666666666666,0.016666666666666666,0.06666666666666667,0.0,0.0
S8_D15 hbo,0.0,0.09333333333333334,0.0,0.0,0.0,0.0,0.0,0.0,0.0,0.0,0.0,0.09333333333333334,0.05333333333333334,0.0,0.0,0.09333333333333334,0.0,0.09333333333333334,0.0,0.09333333333333334,0.02666666666666667,0.0,0.0,0.0,0.0,0.08,0.09333333333333334,0.0,0.0,0.0,0.08,0.0,0.0,0.0,0.0,0.0,0.08,0.0,0.0,0.09333333333333334,0.02666666666666667,0.0,0.0,0.0,0.0,0.0,0.0,0.0,0.0,0.0,0.0,0.0
S9_D2 hbo,0.0,0.06521739130434782,0.0,0.0,0.0,0.0,0.0,0.0,0.0,0.0,0.0,0.10144927536231885,0.06521739130434782,0.0,0.0,0.10144927536231885,0.0,0.10144927536231885,0.0,0.10144927536231885,0.050724637681159424,0.0,0.0,0.0,0.0,0.050724637681159424,0.09420289855072464,0.0,0.0,0.0,0.057971014492753624,0.0,0.0,0.0,0.0,0.0,0.057971014492753624,0.0,0.0,0.10144927536231885,0.050724637681159424,0.0,0.0,0.0,0.0,0.0,0.0,0.0,0.0,0.0,0.0,0.0
S9_D9 hbo,0.0,0.0,0.0,0.0,0.0,0.0,0.0,0.0,0.0,0.0,0.0,0.0,0.0,0.0,0.0,0.0,0.0,0.0,0.0,0.0,0.0,0.0,0.0,0.0,0.0,0.0,0.0,0.0,0.0,0.0,0.0,0.0,0.0,0.0,0.0,0.0,0.0,0.0,0.0,0.0,0.0,0.0,0.0,0.0,0.0,0.0,0.0,0.0,0.0,0.0,0.0,0.0
S9_D11 hbo,0.0,0.0,0.0,0.0,0.0,0.0,0.0,0.0,0.0,0.0,0.0,0.0,0.0,0.0,0.0,0.0,0.0,0.0,0.0,0.0,0.0,0.0,0.0,0.0,0.0,0.0,0.0,0.0,0.0,0.0,0.0,0.0,0.0,0.0,0.0,0.0,0.0,0.0,0.0,0.0,0.0,0.0,0.0,0.0,0.0,0.0,0.0,0.0,0.0,0.0,0.0,0.0
S10_D9 hbo,0.024096385542168676,0.0,0.060240963855421686,0.060240963855421686,0.060240963855421686,0.03614457831325301,0.060240963855421686,0.060240963855421686,0.060240963855421686,0.060240963855421686,0.0,0.0,0.0,0.0,0.024096385542168676,0.0,0.0,0.0,0.060240963855421686,0.0,0.0,0.0,0.0,0.0,0.060240963855421686,0.0,0.0,0.0,0.0,0.04819277108433735,0.0,0.03614457831325301,0.0,0.0,0.060240963855421686,0.060240963855421686,0.0,0.0,0.060240963855421686,0.0,0.0,0.0,0.0,0.0,0.0,0.0,0.0,0.024096385542168676,0.024096385542168676,0.060240963855421686,0.0,0.0
S10_D10 hbo,0.0,0.12234042553191489,0.015957446808510637,0.010638297872340425,0.010638297872340425,0.031914893617021274,0.010638297872340425,0.0,0.0,0.015957446808510637,0.0,0.06914893617021277,0.02127659574468085,0.0,0.0,0.05851063829787234,0.0,0.05851063829787234,0.0,0.05319148936170213,0.010638297872340425,0.0,0.0,0.0,0.0,0.03723404255319149,0.05319148936170213,0.0,0.0,0.0,0.1276595744680851,0.05319148936170213,0.0,0.0,0.0,0.0,0.1276595744680851,0.02127659574468085,0.005319148936170213,0.05319148936170213,0.010638297872340425,0.0,0.0,0.0,0.0,0.0,0.02127659574468085,0.0,0.0,0.0,0.0,0.0
S10_D12 hbo,0.0,0.06766917293233082,0.06015037593984962,0.05263157894736842,0.05263157894736842,0.08270676691729323,0.05263157894736842,0.03007518796992481,0.022556390977443608,0.06015037593984962,0.0,0.0,0.0,0.0,0.0,0.0,0.0,0.0,0.03759398496240601,0.0,0.0,0.0,0.0,0.0,0.03007518796992481,0.0,0.0,0.0,0.0,0.007518796992481203,0.09022556390977443,0.11278195488721804,0.0,0.0,0.015037593984962405,0.015037593984962405,0.09022556390977443,0.007518796992481203,0.045112781954887216,0.0,0.0,0.0,0.0,0.0,0.0,0.0,0.03007518796992481,0.0,0.0,0.03759398496240601,0.0,0.0
S11_D9 hbo,0.0,0.0,0.0,0.0,0.0,0.0,0.0,0.0,0.0,0.0,0.0,0.0,0.0,0.0,0.0,0.0,0.0,0.0,0.0,0.0,0.0,0.0,0.0,0.0,0.0,0.0,0.0,0.0,0.0,0.0,0.0,0.0,0.0,0.0,0.0,0.0,0.0,0.0,0.0,0.0,0.0,0.0,0.0,0.0,0.0,0.0,0.0,0.0,0.0,0.0,0.0,0.0
S11_D11 hbo,0.0,0.0,0.0,0.0,0.0,0.0,0.0,0.0,0.0,0.0,0.0,0.0,0.0,0.0,0.0,0.0,0.0,0.0,0.0,0.0,0.0,0.0,0.0,0.0,0.0,0.0,0.0,0.0,0.0,0.0,0.0,0.0,0.0,0.0,0.0,0.0,0.0,0.0,0.0,0.0,0.0,0.0,0.0,0.0,0.0,0.0,0.0,0.0,0.0,0.0,0.0,0.0
S11_D12 hbo,0.020833333333333332,0.0,0.0625,0.0625,0.0625,0.041666666666666664,0.0625,0.0625,0.0625,0.0625,0.0,0.0,0.0,0.0,0.020833333333333332,0.0,0.0,0.0,0.0625,0.0,0.0,0.0,0.0,0.0,0.0625,0.0,0.0,0.0,0.0,0.041666666666666664,0.0,0.041666666666666664,0.0,0.0,0.052083333333333336,0.052083333333333336,0.0,0.0,0.0625,0.0,0.0,0.0,0.0,0.0,0.0,0.0,0.0,0.020833333333333332,0.020833333333333332,0.0625,0.0,0.0
S11_D13 hbo,0.020833333333333332,0.0,0.0625,0.0625,0.0625,0.041666666666666664,0.0625,0.0625,0.0625,0.0625,0.0,0.0,0.0,0.0,0.020833333333333332,0.0,0.0,0.0,0.0625,0.0,0.0,0.0,0.0,0.0,0.0625,0.0,0.0,0.0,0.0,0.041666666666666664,0.0,0.041666666666666664,0.0,0.0,0.052083333333333336,0.052083333333333336,0.0,0.0,0.0625,0.0,0.0,0.0,0.0,0.0,0.0,0.0,0.0,0.020833333333333332,0.020833333333333332,0.0625,0.0,0.0
S12_D10 hbo,0.0,0.12234042553191489,0.015957446808510637,0.010638297872340425,0.010638297872340425,0.031914893617021274,0.010638297872340425,0.0,0.0,0.015957446808510637,0.0,0.06914893617021277,0.02127659574468085,0.0,0.0,0.05851063829787234,0.0,0.05851063829787234,0.0,0.05319148936170213,0.010638297872340425,0.0,0.0,0.0,0.0,0.03723404255319149,0.05319148936170213,0.0,0.0,0.0,0.1276595744680851,0.05319148936170213,0.0,0.0,0.0,0.0,0.1276595744680851,0.02127659574468085,0.005319148936170213,0.05319148936170213,0.010638297872340425,0.0,0.0,0.0,0.0,0.0,0.02127659574468085,0.0,0.0,0.0,0.0,0.0
S12_D12 hbo,0.0,0.2,0.0,0.0,0.0,0.0,0.0,0.0,0.0,0.0,0.0,0.15,0.0,0.0,0.0,0.05,0.0,0.05,0.0,0.0,0.0,0.0,0.0,0.0,0.0,0.0,0.0,0.0,0.0,0.0,0.2,0.0,0.0,0.0,0.0,0.0,0.2,0.15,0.0,0.0,0.0,0.0,0.0,0.0,0.0,0.0,0.0,0.0,0.0,0.0,0.0,0.0
S12_D14 hbo,0.014388489208633094,0.0,0.07194244604316546,0.07194244604316546,0.07194244604316546,0.05755395683453238,0.07194244604316546,0.050359712230215826,0.04316546762589928,0.07194244604316546,0.0,0.0,0.0,0.0,0.014388489208633094,0.0,0.0,0.0,0.05755395683453238,0.0,0.0,0.0,0.0,0.0,0.050359712230215826,0.0,0.0,0.0,0.0,0.02877697841726619,0.02158273381294964,0.05755395683453238,0.0,0.0,0.03597122302158273,0.03597122302158273,0.02158273381294964,0.0,0.06474820143884892,0.0,0.0,0.0,0.0,0.0,0.0,0.0,0.0,0.014388489208633094,0.014388489208633094,0.05755395683453238,0.0,0.0
S13_D6 hbo,0.0,0.05389221556886228,0.0,0.0,0.0,0.0,0.0,0.0,0.0,0.0,0.0,0.09580838323353294,0.059880239520958084,0.0,0.0,0.11976047904191617,0.0,0.10778443113772455,0.0,0.10778443113772455,0.07784431137724551,0.0,0.0,0.0,0.0,0.041916167664670656,0.07784431137724551,0.0,0.0,0.0,0.04790419161676647,0.0,0.0,0.0,0.0,0.0,0.04790419161676647,0.0,0.0,0.11377245508982035,0.04790419161676647,0.0,0.0,0.0,0.0,0.0,0.0,0.0,0.0,0.0,0.0,0.0
S13_D11 hbo,0.0,0.014705882352941176,0.0,0.0,0.0,0.0,0.0,0.0,0.0,0.0,0.0,0.11764705882352941,0.10294117647058823,0.0,0.0,0.11764705882352941,0.0,0.11764705882352941,0.0,0.11764705882352941,0.11764705882352941,0.0,0.0,0.0,0.0,0.0,0.07352941176470588,0.0,0.0,0.0,0.0,0.0,0.0,0.0,0.0,0.0,0.0,0.0,0.0,0.11764705882352941,0.10294117647058823,0.0,0.0,0.0,0.0,0.0,0.0,0.0,0.0,0.0,0.0,0.0
S13_D13 hbo,0.05555555555555555,0.0,0.05555555555555555,0.05555555555555555,0.05555555555555555,0.0,0.05555555555555555,0.05555555555555555,0.05555555555555555,0.05555555555555555,0.0,0.0,0.0,0.0,0.05555555555555555,0.0,0.0,0.0,0.05555555555555555,0.0,0.0,0.0,0.0,0.0,0.05555555555555555,0.0,0.0,0.0,0.0,0.05555555555555555,0.0,0.0,0.0,0.0,0.05555555555555555,0.05555555555555555,0.0,0.0,0.05555555555555555,0.0,0.0,0.0,0.0,0.0,0.0,0.0,0.0,0.05555555555555555,0.05555555555555555,0.05555555555555555,0.0,0.0
S13_D15 hbo,0.0,0.0,0.0,0.0,0.0,0.0,0.0,0.0,0.0,0.0,0.0,0.0,0.0,0.0,0.0,0.0,0.0,0.0,0.0,0.0,0.0,0.0,0.0,0.0,0.0,0.0,0.0,0.0,0.0,0.0,0.0,0.0,0.0,0.0,0.0,0.0,0.0,0.0,0.0,0.0,0.0,0.0,0.0,0.0,0.0,0.0,0.0,0.0,0.0,0.0,0.0,0.0
S14_D12 hbo,0.05555555555555555,0.0,0.05555555555555555,0.05555555555555555,0.05555555555555555,0.0,0.05555555555555555,0.05555555555555555,0.05555555555555555,0.05555555555555555,0.0,0.0,0.0,0.0,0.05555555555555555,0.0,0.0,0.0,0.05555555555555555,0.0,0.0,0.0,0.0,0.0,0.05555555555555555,0.0,0.0,0.0,0.0,0.05555555555555555,0.0,0.0,0.0,0.0,0.05555555555555555,0.05555555555555555,0.0,0.0,0.05555555555555555,0.0,0.0,0.0,0.0,0.0,0.0,0.0,0.0,0.05555555555555555,0.05555555555555555,0.05555555555555555,0.0,0.0
S14_D13 hbo,0.0,0.0,0.0,0.0,0.0,0.0,0.0,0.0,0.0,0.0,0.0,0.0,0.0,0.0,0.0,0.0,0.0,0.0,0.0,0.0,0.0,0.0,0.0,0.0,0.0,0.0,0.0,0.0,0.0,0.0,0.0,0.0,0.0,0.0,0.0,0.0,0.0,0.0,0.0,0.0,0.0,0.0,0.0,0.0,0.0,0.0,0.0,0.0,0.0,0.0,0.0,0.0
S14_D14 hbo,0.0,0.0,0.0,0.0,0.0,0.0,0.0,0.0,0.0,0.0,0.0,0.0,0.0,0.0,0.0,0.0,0.0,0.0,0.0,0.0,0.0,0.0,0.0,0.0,0.0,0.0,0.0,0.0,0.0,0.0,0.0,0.0,0.0,0.0,0.0,0.0,0.0,0.0,0.0,0.0,0.0,0.0,0.0,0.0,0.0,0.0,0.0,0.0,0.0,0.0,0.0,0.0
S14_D16 hbo,0.0,0.18181818181818182,0.0,0.0,0.0,0.13636363636363635,0.0,0.0,0.0,0.0,0.0,0.0,0.0,0.0,0.0,0.0,0.0,0.0,0.0,0.0,0.0,0.0,0.0,0.0,0.0,0.0,0.0,0.0,0.0,0.0,0.18181818181818182,0.18181818181818182,0.0,0.0,0.0,0.0,0.18181818181818182,0.0,0.0,0.0,0.0,0.0,0.0,0.0,0.0,0.0,0.13636363636363635,0.0,0.0,0.0,0.0,0.0
S15_D13 hbo,0.038461538461538464,0.0,0.057692307692307696,0.057692307692307696,0.057692307692307696,0.019230769230769232,0.057692307692307696,0.057692307692307696,0.057692307692307696,0.057692307692307696,0.0,0.0,0.0,0.0,0.038461538461538464,0.0,0.0,0.0,0.057692307692307696,0.0,0.0,0.0,0.0,0.0,0.057692307692307696,0.0,0.0,0.0,0.0,0.057692307692307696,0.0,0.019230769230769232,0.0,0.0,0.057692307692307696,0.057692307692307696,0.0,0.0,0.057692307692307696,0.0,0.0,0.0,0.0,0.0,0.0,0.0,0.0,0.038461538461538464,0.038461538461538464,0.057692307692307696,0.0,0.0
S15_D15 hbo,0.038461538461538464,0.0,0.057692307692307696,0.057692307692307696,0.057692307692307696,0.019230769230769232,0.057692307692307696,0.057692307692307696,0.057692307692307696,0.057692307692307696,0.0,0.0,0.0,0.0,0.038461538461538464,0.0,0.0,0.0,0.057692307692307696,0.0,0.0,0.0,0.0,0.0,0.057692307692307696,0.0,0.0,0.0,0.0,0.057692307692307696,0.0,0.019230769230769232,0.0,0.0,0.057692307692307696,0.057692307692307696,0.0,0.0,0.057692307692307696,0.0,0.0,0.0,0.0,0.0,0.0,0.0,0.0,0.038461538461538464,0.038461538461538464,0.057692307692307696,0.0,0.0
S15_D16 hbo,0.015384615384615385,0.0,0.06923076923076923,0.06923076923076923,0.06923076923076923,0.05384615384615385,0.06923076923076923,0.05384615384615385,0.046153846153846156,0.06923076923076923,0.0,0.0,0.0,0.0,0.015384615384615385,0.0,0.0,0.0,0.06153846153846154,0.0,0.0,0.0,0.0,0.0,0.05384615384615385,0.0,0.0,0.0,0.0,0.03076923076923077,0.015384615384615385,0.05384615384615385,0.0,0.0,0.038461538461538464,0.038461538461538464,0.015384615384615385,0.0,0.06923076923076923,0.0,0.0,0.0,0.0,0.0,0.0,0.0,0.0,0.015384615384615385,0.015384615384615385,0.06153846153846154,0.0,0.0
S16_D14 hbo,0.0,0.0,0.0,0.0,0.0,0.0,0.0,0.0,0.0,0.0,0.0,0.0,0.0,0.0,0.0,0.0,0.0,0.0,0.0,0.0,0.0,0.0,0.0,0.0,0.0,0.0,0.0,0.0,0.0,0.0,0.0,0.0,0.0,0.0,0.0,0.0,0.0,0.0,0.0,0.0,0.0,0.0,0.0,0.0,0.0,0.0,0.0,0.0,0.0,0.0,0.0,0.0
S16_D16 hbo,0.0,0.0,0.0,0.0,0.0,0.0,0.0,0.0,0.0,0.0,0.0,0.0,0.0,0.0,0.0,0.0,0.0,0.0,0.0,0.0,0.0,0.0,0.0,0.0,0.0,0.0,0.0,0.0,0.0,0.0,0.0,0.0,0.0,0.0,0.0,0.0,0.0,0.0,0.0,0.0,0.0,0.0,0.0,0.0,0.0,0.0,0.0,0.0,0.0,0.0,0.0,0.0
