,S1_D1 hbo,S1_D3 hbo,S2_D1 hbo,S2_D2 hbo,S2_D4 hbo,S3_D1 hbo,S3_D3 hbo,S3_D4 hbo,S3_D5 hbo,S4_D2 hbo,S4_D4 hbo,S4_D6 hbo,S4_D11 hbo,S5_D3 hbo,S5_D5 hbo,S5_D7 hbo,S6_D4 hbo,S6_D5 hbo,S6_D6 hbo,S6_D8 hbo,S7_D5 hbo,S7_D7 hbo,S7_D8 hbo,S8_D6 hbo,S8_D8 hbo,S8_D15 hbo,S9_D2 hbo,S9_D9 hbo,S9_D11 hbo,S10_D9 hbo,S10_D10 hbo,S10_D12 hbo,S11_D9 hbo,S11_D11 hbo,S11_D12 hbo,S11_D13 hbo,S12_D10 hbo,S12_D12 hbo,S12_D14 hbo,S13_D6 hbo,S13_D11 hbo,S13_D13 hbo,S13_D15 hbo,S14_D12 hbo,S14_D13 hbo,S14_D14 hbo,S14_D16 hbo,S15_D13 hbo,S15_D15 hbo,S15_D16 hbo,S16_D14 hbo,S16_D16 hbo
S1_D1 hbo,0.01694915254237288,0.025423728813559324,0.025423728813559324,0.025423728813559324,0.025423728813559324,0.025423728813559324,0.01694915254237288,0.0,0.01694915254237288,0.00847457627118644,0.025423728813559324,0.025423728813559324,0.025423728813559324,0.025423728813559324,0.025423728813559324,0.025423728813559324,0.01694915254237288,0.025423728813559324,0.025423728813559324,0.025423728813559324,0.0,0.0,0.0,0.025423728813559324,0.025423728813559324,0.025423728813559324,0.01694915254237288,0.025423728813559324,0.025423728813559324,0.025423728813559324,0.0,0.01694915254237288,0.025423728813559324,0.025423728813559324,0.0,0.025423728813559324,0.025423728813559324,0.0,0.0,0.025423728813559324,0.025423728813559324,0.0,0.025423728813559324,0.025423728813559324,0.025423728813559324,0.025423728813559324,0.025423728813559324,0.0,0.025423728813559324,0.025423728813559324,0.025423728813559324,0.025423728813559324
S1_D3 hbo,0.01293103448275862,0.02586206896551724,0.02586206896551724,0.021551724137931036,0.021551724137931036,0.021551724137931036,0.017241379310344827,0.0,0.017241379310344827,0.004310344827586207,0.03017241379310345,0.017241379310344827,0.03017241379310345,0.021551724137931036,0.02586206896551724,0.021551724137931036,0.01293103448275862,0.03017241379310345,0.03017241379310345,0.02586206896551724,0.0,0.0,0.0,0.03017241379310345,0.021551724137931036,0.03017241379310345,0.017241379310344827,0.02586206896551724,0.03017241379310345,0.02586206896551724,0.0,0.01293103448275862,0.017241379310344827,0.02586206896551724,0.0,0.03017241379310345,0.02586206896551724,0.0,0.0,0.03017241379310345,0.03017241379310345,0.0,0.03017241379310345,0.02586206896551724,0.03017241379310345,0.017241379310344827,0.021551724137931036,0.0,0.03017241379310345,0.02586206896551724,0.02586206896551724,0.02586206896551724
S2_D1 hbo,0.015,0.025,0.025,0.02,0.025,0.02,0.015,0.0,0.015,0.005,0.03,0.02,0.03,0.02,0.025,0.02,0.015,0.03,0.03,0.025,0.0,0.0,0.0,0.03,0.02,0.03,0.015,0.025,0.03,0.03,0.0,0.015,0.02,0.025,0.0,0.03,0.03,0.0,0.0,0.03,0.03,0.0,0.03,0.025,0.03,0.02,0.02,0.0,0.03,0.025,0.025,0.025
S2_D2 hbo,0.016216216216216217,0.02702702702702703,0.02702702702702703,0.021621621621621623,0.02702702702702703,0.021621621621621623,0.016216216216216217,0.0,0.016216216216216217,0.005405405405405406,0.02702702702702703,0.021621621621621623,0.02702702702702703,0.021621621621621623,0.02702702702702703,0.021621621621621623,0.016216216216216217,0.02702702702702703,0.02702702702702703,0.02702702702702703,0.0,0.0,0.0,0.02702702702702703,0.021621621621621623,0.02702702702702703,0.016216216216216217,0.02702702702702703,0.02702702702702703,0.02702702702702703,0.0,0.016216216216216217,0.021621621621621623,0.02702702702702703,0.0,0.02702702702702703,0.02702702702702703,0.0,0.0,0.02702702702702703,0.02702702702702703,0.0,0.02702702702702703,0.02702702702702703,0.02702702702702703,0.021621621621621623,0.021621621621621623,0.0,0.02702702702702703,0.02702702702702703,0.02702702702702703,0.02702702702702703
S2_D4 hbo,0.0125,0.025,0.025,0.01875,0.025,0.01875,0.0125,0.0,0.0125,0.00625,0.03125,0.01875,0.03125,0.01875,0.025,0.01875,0.0125,0.03125,0.03125,0.025,0.0,0.0,0.0,0.03125,0.01875,0.03125,0.0125,0.025,0.03125,0.03125,0.0,0.0125,0.025,0.025,0.0,0.03125,0.03125,0.0,0.0,0.03125,0.03125,0.0,0.03125,0.025,0.03125,0.01875,0.01875,0.0,0.03125,0.025,0.025,0.025
S3_D1 hbo,0.016216216216216217,0.02702702702702703,0.02702702702702703,0.021621621621621623,0.02702702702702703,0.021621621621621623,0.016216216216216217,0.0,0.016216216216216217,0.005405405405405406,0.02702702702702703,0.021621621621621623,0.02702702702702703,0.021621621621621623,0.02702702702702703,0.021621621621621623,0.016216216216216217,0.02702702702702703,0.02702702702702703,0.02702702702702703,0.0,0.0,0.0,0.02702702702702703,0.021621621621621623,0.02702702702702703,0.016216216216216217,0.02702702702702703,0.02702702702702703,0.02702702702702703,0.0,0.016216216216216217,0.021621621621621623,0.02702702702702703,0.0,0.02702702702702703,0.02702702702702703,0.0,0.0,0.02702702702702703,0.02702702702702703,0.0,0.02702702702702703,0.02702702702702703,0.02702702702702703,0.021621621621621623,0.021621621621621623,0.0,0.02702702702702703,0.02702702702702703,0.02702702702702703,0.02702702702702703
S3_D3 hbo,0.0189873417721519,0.02531645569620253,0.02531645569620253,0.02531645569620253,0.02531645569620253,0.02531645569620253,0.0189873417721519,0.0,0.0189873417721519,0.006329113924050633,0.02531645569620253,0.02531645569620253,0.02531645569620253,0.02531645569620253,0.02531645569620253,0.02531645569620253,0.0189873417721519,0.02531645569620253,0.02531645569620253,0.02531645569620253,0.0,0.0,0.0,0.02531645569620253,0.02531645569620253,0.02531645569620253,0.0189873417721519,0.02531645569620253,0.02531645569620253,0.02531645569620253,0.0,0.0189873417721519,0.0189873417721519,0.02531645569620253,0.0,0.02531645569620253,0.02531645569620253,0.0,0.0,0.02531645569620253,0.02531645569620253,0.0,0.02531645569620253,0.02531645569620253,0.02531645569620253,0.02531645569620253,0.02531645569620253,0.0,0.02531645569620253,0.02531645569620253,0.02531645569620253,0.02531645569620253
S3_D4 hbo,0.0,0.0,0.0,0.0,0.0,0.0,0.0,0.0,0.0,0.0,0.0,0.0,0.0,0.0,0.0,0.0,0.0,0.0,0.0,0.0,0.0,0.0,0.0,0.0,0.0,0.0,0.0,0.0,0.0,0.0,0.0,0.0,0.0,0.0,0.0,0.0,0.0,0.0,0.0,0.0,0.0,0.0,0.0,0.0,0.0,0.0,0.0,0.0,0.0,0.0,0.0,0.0
S3_D5 hbo,0.0189873417721519,0.02531645569620253,0.02531645569620253,0.02531645569620253,0.02531645569620253,0.02531645569620253,0.0189873417721519,0.0,0.0189873417721519,0.006329113924050633,0.02531645569620253,0.02531645569620253,0.02531645569620253,0.02531645569620253,0.02531645569620253,0.02531645569620253,0.0189873417721519,0.02531645569620253,0.02531645569620253,0.02531645569620253,0.0,0.0,0.0,0.02531645569620253,0.02531645569620253,0.02531645569620253,0.0189873417721519,0.02531645569620253,0.02531645569620253,0.02531645569620253,0.0,0.0189873417721519,0.0189873417721519,0.02531645569620253,0.0,0.02531645569620253,0.02531645569620253,0.0,0.0,0.02531645569620253,0.02531645569620253,0.0,0.02531645569620253,0.02531645569620253,0.02531645569620253,0.02531645569620253,0.02531645569620253,0.0,0.02531645569620253,0.02531645569620253,0.02531645569620253,0.02531645569620253
S4_D2 hbo,0.024390243902439025,0.024390243902439025,0.024390243902439025,0.024390243902439025,0.024390243902439025,0.024390243902439025,0.024390243902439025,0.0,0.024390243902439025,0.0,0.024390243902439025,0.024390243902439025,0.024390243902439025,0.024390243902439025,0.024390243902439025,0.024390243902439025,0.024390243902439025,0.024390243902439025,0.024390243902439025,0.024390243902439025,0.0,0.0,0.0,0.024390243902439025,0.024390243902439025,0.024390243902439025,0.024390243902439025,0.024390243902439025,0.024390243902439025,0.024390243902439025,0.0,0.024390243902439025,0.024390243902439025,0.024390243902439025,0.0,0.024390243902439025,0.024390243902439025,0.0,0.0,0.024390243902439025,0.024390243902439025,0.0,0.024390243902439025,0.024390243902439025,0.024390243902439025,0.024390243902439025,0.024390243902439025,0.0,0.024390243902439025,0.024390243902439025,0.024390243902439025,0.024390243902439025
S4_D4 hbo,0.014354066985645933,0.023923444976076555,0.023923444976076555,0.019138755980861243,0.023923444976076555,0.019138755980861243,0.014354066985645933,0.0,0.014354066985645933,0.004784688995215311,0.03349282296650718,0.019138755980861243,0.03349282296650718,0.019138755980861243,0.023923444976076555,0.019138755980861243,0.014354066985645933,0.028708133971291867,0.028708133971291867,0.023923444976076555,0.0,0.0,0.0,0.03349282296650718,0.019138755980861243,0.028708133971291867,0.014354066985645933,0.023923444976076555,0.028708133971291867,0.028708133971291867,0.0,0.014354066985645933,0.019138755980861243,0.023923444976076555,0.0,0.028708133971291867,0.028708133971291867,0.0,0.0,0.03349282296650718,0.03827751196172249,0.0,0.03827751196172249,0.023923444976076555,0.03349282296650718,0.019138755980861243,0.019138755980861243,0.0,0.028708133971291867,0.023923444976076555,0.023923444976076555,0.023923444976076555
S4_D6 hbo,0.013793103448275862,0.027586206896551724,0.027586206896551724,0.020689655172413793,0.027586206896551724,0.020689655172413793,0.013793103448275862,0.0,0.013793103448275862,0.006896551724137931,0.027586206896551724,0.020689655172413793,0.027586206896551724,0.020689655172413793,0.027586206896551724,0.020689655172413793,0.013793103448275862,0.027586206896551724,0.027586206896551724,0.027586206896551724,0.0,0.0,0.0,0.027586206896551724,0.020689655172413793,0.027586206896551724,0.013793103448275862,0.027586206896551724,0.027586206896551724,0.027586206896551724,0.0,0.013793103448275862,0.027586206896551724,0.027586206896551724,0.0,0.027586206896551724,0.027586206896551724,0.0,0.0,0.027586206896551724,0.027586206896551724,0.0,0.027586206896551724,0.027586206896551724,0.027586206896551724,0.020689655172413793,0.020689655172413793,0.0,0.027586206896551724,0.027586206896551724,0.027586206896551724,0.027586206896551724
S4_D11 hbo,0.012448132780082987,0.024896265560165973,0.024896265560165973,0.02074688796680498,0.02074688796680498,0.02074688796680498,0.016597510373443983,0.0,0.016597510373443983,0.004149377593360996,0.03319502074688797,0.016597510373443983,0.03319502074688797,0.02074688796680498,0.024896265560165973,0.02074688796680498,0.012448132780082987,0.029045643153526972,0.029045643153526972,0.024896265560165973,0.0,0.0,0.0,0.03319502074688797,0.02074688796680498,0.029045643153526972,0.016597510373443983,0.024896265560165973,0.029045643153526972,0.024896265560165973,0.0,0.012448132780082987,0.016597510373443983,0.024896265560165973,0.0,0.029045643153526972,0.024896265560165973,0.0,0.0,0.03319502074688797,0.03734439834024896,0.0,0.03734439834024896,0.024896265560165973,0.03319502074688797,0.016597510373443983,0.02074688796680498,0.0,0.029045643153526972,0.024896265560165973,0.024896265560165973,0.024896265560165973
S5_D3 hbo,0.016216216216216217,0.02702702702702703,0.02702702702702703,0.021621621621621623,0.02702702702702703,0.021621621621621623,0.016216216216216217,0.0,0.016216216216216217,0.005405405405405406,0.02702702702702703,0.021621621621621623,0.02702702702702703,0.021621621621621623,0.02702702702702703,0.021621621621621623,0.016216216216216217,0.02702702702702703,0.02702702702702703,0.02702702702702703,0.0,0.0,0.0,0.02702702702702703,0.021621621621621623,0.02702702702702703,0.016216216216216217,0.02702702702702703,0.02702702702702703,0.02702702702702703,0.0,0.016216216216216217,0.021621621621621623,0.02702702702702703,0.0,0.02702702702702703,0.02702702702702703,0.0,0.0,0.02702702702702703,0.02702702702702703,0.0,0.02702702702702703,0.02702702702702703,0.02702702702702703,0.021621621621621623,0.021621621621621623,0.0,0.02702702702702703,0.02702702702702703,0.02702702702702703,0.02702702702702703
S5_D5 hbo,0.015,0.025,0.025,0.02,0.025,0.02,0.015,0.0,0.015,0.005,0.03,0.02,0.03,0.02,0.025,0.02,0.015,0.03,0.03,0.025,0.0,0.0,0.0,0.03,0.02,0.03,0.015,0.025,0.03,0.03,0.0,0.015,0.02,0.025,0.0,0.03,0.03,0.0,0.0,0.03,0.03,0.0,0.03,0.025,0.03,0.02,0.02,0.0,0.03,0.025,0.025,0.025
S5_D7 hbo,0.016216216216216217,0.02702702702702703,0.02702702702702703,0.021621621621621623,0.02702702702702703,0.021621621621621623,0.016216216216216217,0.0,0.016216216216216217,0.005405405405405406,0.02702702702702703,0.021621621621621623,0.02702702702702703,0.021621621621621623,0.02702702702702703,0.021621621621621623,0.016216216216216217,0.02702702702702703,0.02702702702702703,0.02702702702702703,0.0,0.0,0.0,0.02702702702702703,0.021621621621621623,0.02702702702702703,0.016216216216216217,0.02702702702702703,0.02702702702702703,0.02702702702702703,0.0,0.016216216216216217,0.021621621621621623,0.02702702702702703,0.0,0.02702702702702703,0.02702702702702703,0.0,0.0,0.02702702702702703,0.02702702702702703,0.0,0.02702702702702703,0.02702702702702703,0.02702702702702703,0.021621621621621623,0.021621621621621623,0.0,0.02702702702702703,0.02702702702702703,0.02702702702702703,0.02702702702702703
S6_D4 hbo,0.01694915254237288,0.025423728813559324,0.025423728813559324,0.025423728813559324,0.025423728813559324,0.025423728813559324,0.01694915254237288,0.0,0.01694915254237288,0.00847457627118644,0.025423728813559324,0.025423728813559324,0.025423728813559324,0.025423728813559324,0.025423728813559324,0.025423728813559324,0.01694915254237288,0.025423728813559324,0.025423728813559324,0.025423728813559324,0.0,0.0,0.0,0.025423728813559324,0.025423728813559324,0.025423728813559324,0.01694915254237288,0.025423728813559324,0.025423728813559324,0.025423728813559324,0.0,0.01694915254237288,0.025423728813559324,0.025423728813559324,0.0,0.025423728813559324,0.025423728813559324,0.0,0.0,0.025423728813559324,0.025423728813559324,0.0,0.025423728813559324,0.025423728813559324,0.025423728813559324,0.025423728813559324,0.025423728813559324,0.0,0.025423728813559324,0.025423728813559324,0.025423728813559324,0.025423728813559324
S6_D5 hbo,0.014492753623188406,0.024154589371980676,0.024154589371980676,0.01932367149758454,0.024154589371980676,0.01932367149758454,0.014492753623188406,0.0,0.014492753623188406,0.004830917874396135,0.033816425120772944,0.01932367149758454,0.033816425120772944,0.01932367149758454,0.024154589371980676,0.01932367149758454,0.014492753623188406,0.028985507246376812,0.028985507246376812,0.024154589371980676,0.0,0.0,0.0,0.033816425120772944,0.01932367149758454,0.028985507246376812,0.014492753623188406,0.024154589371980676,0.028985507246376812,0.028985507246376812,0.0,0.014492753623188406,0.01932367149758454,0.024154589371980676,0.0,0.028985507246376812,0.028985507246376812,0.0,0.0,0.033816425120772944,0.033816425120772944,0.0,0.033816425120772944,0.024154589371980676,0.033816425120772944,0.01932367149758454,0.01932367149758454,0.0,0.028985507246376812,0.024154589371980676,0.024154589371980676,0.024154589371980676
S6_D6 hbo,0.014492753623188406,0.024154589371980676,0.024154589371980676,0.01932367149758454,0.024154589371980676,0.01932367149758454,0.014492753623188406,0.0,0.014492753623188406,0.004830917874396135,0.033816425120772944,0.01932367149758454,0.033816425120772944,0.01932367149758454,0.024154589371980676,0.01932367149758454,0.014492753623188406,0.028985507246376812,0.028985507246376812,0.024154589371980676,0.0,0.0,0.0,0.033816425120772944,0.01932367149758454,0.028985507246376812,0.014492753623188406,0.024154589371980676,0.028985507246376812,0.028985507246376812,0.0,0.014492753623188406,0.01932367149758454,0.024154589371980676,0.0,0.028985507246376812,0.028985507246376812,0.0,0.0,0.033816425120772944,0.033816425120772944,0.0,0.033816425120772944,0.024154589371980676,0.033816425120772944,0.01932367149758454,0.01932367149758454,0.0,0.028985507246376812,0.024154589371980676,0.024154589371980676,0.024154589371980676
S6_D8 hbo,0.015,0.025,0.025,0.02,0.025,0.02,0.015,0.0,0.015,0.005,0.03,0.02,0.03,0.02,0.025,0.02,0.015,0.03,0.03,0.025,0.0,0.0,0.0,0.03,0.02,0.03,0.015,0.025,0.03,0.03,0.0,0.015,0.02,0.025,0.0,0.03,0.03,0.0,0.0,0.03,0.03,0.0,0.03,0.025,0.03,0.02,0.02,0.0,0.03,0.025,0.025,0.025
S7_D5 hbo,0.0,0.0,0.0,0.0,0.0,0.0,0.0,0.0,0.0,0.0,0.0,0.0,0.0,0.0,0.0,0.0,0.0,0.0,0.0,0.0,0.0,0.0,0.0,0.0,0.0,0.0,0.0,0.0,0.0,0.0,0.0,0.0,0.0,0.0,0.0,0.0,0.0,0.0,0.0,0.0,0.0,0.0,0.0,0.0,0.0,0.0,0.0,0.0,0.0,0.0,0.0,0.0
S7_D7 hbo,0.0,0.0,0.0,0.0,0.0,0.0,0.0,0.0,0.0,0.0,0.0,0.0,0.0,0.0,0.0,0.0,0.0,0.0,0.0,0.0,0.0,1.0,0.0,0.0,0.0,0.0,0.0,0.0,0.0,0.0,0.0,0.0,0.0,0.0,0.0,0.0,0.0,0.0,0.0,0.0,0.0,0.0,0.0,0.0,0.0,0.0,0.0,0.0,0.0,0.0,0.0,0.0
S7_D8 hbo,0.0,0.0,0.0,0.0,0.0,0.0,0.0,0.0,0.0,0.0,0.0,0.0,0.0,0.0,0.0,0.0,0.0,0.0,0.0,0.0,0.0,0.0,0.0,0.0,0.0,0.0,0.0,0.0,0.0,0.0,0.0,0.0,0.0,0.0,0.0,0.0,0.0,0.0,0.0,0.0,0.0,0.0,0.0,0.0,0.0,0.0,0.0,0.0,0.0,0.0,0.0,0.0
S8_D6 hbo,0.012448132780082987,0.024896265560165973,0.024896265560165973,0.02074688796680498,0.02074688796680498,0.02074688796680498,0.016597510373443983,0.0,0.016597510373443983,0.004149377593360996,0.03319502074688797,0.016597510373443983,0.03319502074688797,0.02074688796680498,0.024896265560165973,0.02074688796680498,0.012448132780082987,0.029045643153526972,0.029045643153526972,0.024896265560165973,0.0,0.0,0.0,0.03319502074688797,0.02074688796680498,0.029045643153526972,0.016597510373443983,0.024896265560165973,0.029045643153526972,0.024896265560165973,0.0,0.012448132780082987,0.016597510373443983,0.024896265560165973,0.0,0.029045643153526972,0.024896265560165973,0.0,0.0,0.03319502074688797,0.03734439834024896,0.0,0.03734439834024896,0.024896265560165973,0.03319502074688797,0.016597510373443983,0.02074688796680498,0.0,0.029045643153526972,0.024896265560165973,0.024896265560165973,0.024896265560165973
S8_D8 hbo,0.016216216216216217,0.02702702702702703,0.02702702702702703,0.021621621621621623,0.02702702702702703,0.021621621621621623,0.016216216216216217,0.0,0.016216216216216217,0.005405405405405406,0.02702702702702703,0.021621621621621623,0.02702702702702703,0.021621621621621623,0.02702702702702703,0.021621621621621623,0.016216216216216217,0.02702702702702703,0.02702702702702703,0.02702702702702703,0.0,0.0,0.0,0.02702702702702703,0.021621621621621623,0.02702702702702703,0.016216216216216217,0.02702702702702703,0.02702702702702703,0.02702702702702703,0.0,0.016216216216216217,0.021621621621621623,0.02702702702702703,0.0,0.02702702702702703,0.02702702702702703,0.0,0.0,0.02702702702702703,0.02702702702702703,0.0,0.02702702702702703,0.02702702702702703,0.02702702702702703,0.021621621621621623,0.021621621621621623,0.0,0.02702702702702703,0.02702702702702703,0.02702702702702703,0.02702702702702703
S8_D15 hbo,0.014492753623188406,0.024154589371980676,0.024154589371980676,0.01932367149758454,0.024154589371980676,0.01932367149758454,0.014492753623188406,0.0,0.014492753623188406,0.004830917874396135,0.033816425120772944,0.01932367149758454,0.033816425120772944,0.01932367149758454,0.024154589371980676,0.01932367149758454,0.014492753623188406,0.028985507246376812,0.028985507246376812,0.024154589371980676,0.0,0.0,0.0,0.033816425120772944,0.01932367149758454,0.028985507246376812,0.014492753623188406,0.024154589371980676,0.028985507246376812,0.028985507246376812,0.0,0.014492753623188406,0.01932367149758454,0.024154589371980676,0.0,0.028985507246376812,0.028985507246376812,0.0,0.0,0.033816425120772944,0.033816425120772944,0.0,0.033816425120772944,0.024154589371980676,0.033816425120772944,0.01932367149758454,0.01932367149758454,0.0,0.028985507246376812,0.024154589371980676,0.024154589371980676,0.024154589371980676
S9_D2 hbo,0.0189873417721519,0.02531645569620253,0.02531645569620253,0.02531645569620253,0.02531645569620253,0.02531645569620253,0.0189873417721519,0.0,0.0189873417721519,0.006329113924050633,0.02531645569620253,0.02531645569620253,0.02531645569620253,0.02531645569620253,0.02531645569620253,0.02531645569620253,0.0189873417721519,0.02531645569620253,0.02531645569620253,0.02531645569620253,0.0,0.0,0.0,0.02531645569620253,0.02531645569620253,0.02531645569620253,0.0189873417721519,0.02531645569620253,0.02531645569620253,0.02531645569620253,0.0,0.0189873417721519,0.0189873417721519,0.02531645569620253,0.0,0.02531645569620253,0.02531645569620253,0.0,0.0,0.02531645569620253,0.02531645569620253,0.0,0.02531645569620253,0.02531645569620253,0.02531645569620253,0.02531645569620253,0.02531645569620253,0.0,0.02531645569620253,0.02531645569620253,0.02531645569620253,0.02531645569620253
S9_D9 hbo,0.015,0.025,0.025,0.02,0.025,0.02,0.015,0.0,0.015,0.005,0.03,0.02,0.03,0.02,0.025,0.02,0.015,0.03,0.03,0.025,0.0,0.0,0.0,0.03,0.02,0.03,0.015,0.025,0.03,0.03,0.0,0.015,0.02,0.025,0.0,0.03,0.03,0.0,0.0,0.03,0.03,0.0,0.03,0.025,0.03,0.02,0.02,0.0,0.03,0.025,0.025,0.025
S9_D11 hbo,0.014492753623188406,0.024154589371980676,0.024154589371980676,0.01932367149758454,0.024154589371980676,0.01932367149758454,0.014492753623188406,0.0,0.014492753623188406,0.004830917874396135,0.033816425120772944,0.01932367149758454,0.033816425120772944,0.01932367149758454,0.024154589371980676,0.01932367149758454,0.014492753623188406,0.028985507246376812,0.028985507246376812,0.024154589371980676,0.0,0.0,0.0,0.033816425120772944,0.01932367149758454,0.028985507246376812,0.014492753623188406,0.024154589371980676,0.028985507246376812,0.028985507246376812,0.0,0.014492753623188406,0.01932367149758454,0.024154589371980676,0.0,0.028985507246376812,0.028985507246376812,0.0,0.0,0.033816425120772944,0.033816425120772944,0.0,0.033816425120772944,0.024154589371980676,0.033816425120772944,0.01932367149758454,0.01932367149758454,0.0,0.028985507246376812,0.024154589371980676,0.024154589371980676,0.024154589371980676
S10_D9 hbo,0.011976047904191617,0.023952095808383235,0.023952095808383235,0.017964071856287425,0.023952095808383235,0.017964071856287425,0.011976047904191617,0.0,0.011976047904191617,0.005988023952095809,0.03592814371257485,0.017964071856287425,0.03592814371257485,0.017964071856287425,0.023952095808383235,0.017964071856287425,0.011976047904191617,0.029940119760479042,0.029940119760479042,0.023952095808383235,0.0,0.0,0.0,0.03592814371257485,0.017964071856287425,0.029940119760479042,0.011976047904191617,0.023952095808383235,0.029940119760479042,0.029940119760479042,0.0,0.011976047904191617,0.023952095808383235,0.023952095808383235,0.0,0.029940119760479042,0.029940119760479042,0.0,0.0,0.03592814371257485,0.03592814371257485,0.0,0.03592814371257485,0.023952095808383235,0.03592814371257485,0.017964071856287425,0.017964071856287425,0.0,0.029940119760479042,0.023952095808383235,0.023952095808383235,0.023952095808383235
S10_D10 hbo,0.0,0.0,0.0,0.0,0.0,0.0,0.0,0.0,0.0,0.0,0.0,0.0,0.0,0.0,0.0,0.0,0.0,0.0,0.0,0.0,0.0,0.0,0.0,0.0,0.0,0.0,0.0,0.0,0.0,0.0,0.0,0.0,0.0,0.0,0.0,0.0,0.0,0.0,0.0,0.0,0.0,0.0,0.0,0.0,0.0,0.0,0.0,0.0,0.0,0.0,0.0,0.0
S10_D12 hbo,0.01694915254237288,0.025423728813559324,0.025423728813559324,0.025423728813559324,0.025423728813559324,0.025423728813559324,0.01694915254237288,0.0,0.01694915254237288,0.00847457627118644,0.025423728813559324,0.025423728813559324,0.025423728813559324,0.025423728813559324,0.025423728813559324,0.025423728813559324,0.01694915254237288,0.025423728813559324,0.025423728813559324,0.025423728813559324,0.0,0.0,0.0,0.025423728813559324,0.025423728813559324,0.025423728813559324,0.01694915254237288,0.025423728813559324,0.025423728813559324,0.025423728813559324,0.0,0.01694915254237288,0.025423728813559324,0.025423728813559324,0.0,0.025423728813559324,0.025423728813559324,0.0,0.0,0.025423728813559324,0.025423728813559324,0.0,0.025423728813559324,0.025423728813559324,0.025423728813559324,0.025423728813559324,0.025423728813559324,0.0,0.025423728813559324,0.025423728813559324,0.025423728813559324,0.025423728813559324
S11_D9 hbo,0.00847457627118644,0.025423728813559324,0.025423728813559324,0.01694915254237288,0.025423728813559324,0.01694915254237288,0.00847457627118644,0.0,0.00847457627118644,0.0,0.03389830508474576,0.01694915254237288,0.03389830508474576,0.01694915254237288,0.025423728813559324,0.01694915254237288,0.00847457627118644,0.03389830508474576,0.03389830508474576,0.025423728813559324,0.0,0.0,0.0,0.03389830508474576,0.01694915254237288,0.03389830508474576,0.00847457627118644,0.025423728813559324,0.03389830508474576,0.03389830508474576,0.0,0.00847457627118644,0.025423728813559324,0.025423728813559324,0.0,0.03389830508474576,0.03389830508474576,0.0,0.0,0.03389830508474576,0.03389830508474576,0.0,0.03389830508474576,0.025423728813559324,0.03389830508474576,0.01694915254237288,0.01694915254237288,0.0,0.03389830508474576,0.025423728813559324,0.025423728813559324,0.025423728813559324
S11_D11 hbo,0.015,0.025,0.025,0.02,0.025,0.02,0.015,0.0,0.015,0.005,0.03,0.02,0.03,0.02,0.025,0.02,0.015,0.03,0.03,0.025,0.0,0.0,0.0,0.03,0.02,0.03,0.015,0.025,0.03,0.03,0.0,0.015,0.02,0.025,0.0,0.03,0.03,0.0,0.0,0.03,0.03,0.0,0.03,0.025,0.03,0.02,0.02,0.0,0.03,0.025,0.025,0.025
S11_D12 hbo,0.0,0.0,0.0,0.0,0.0,0.0,0.0,0.0,0.0,0.0,0.0,0.0,0.0,0.0,0.0,0.0,0.0,0.0,0.0,0.0,0.0,0.0,0.0,0.0,0.0,0.0,0.0,0.0,0.0,0.0,0.0,0.0,0.0,0.0,0.0,0.0,0.0,0.0,0.0,0.0,0.0,0.0,0.0,0.0,0.0,0.0,0.0,0.0,0.0,0.0,0.0,0.0
S11_D13 hbo,0.014492753623188406,0.024154589371980676,0.024154589371980676,0.01932367149758454,0.024154589371980676,0.01932367149758454,0.014492753623188406,0.0,0.014492753623188406,0.004830917874396135,0.033816425120772944,0.01932367149758454,0.033816425120772944,0.01932367149758454,0.024154589371980676,0.01932367149758454,0.014492753623188406,0.028985507246376812,0.028985507246376812,0.024154589371980676,0.0,0.0,0.0,0.033816425120772944,0.01932367149758454,0.028985507246376812,0.014492753623188406,0.024154589371980676,0.028985507246376812,0.028985507246376812,0.0,0.014492753623188406,0.01932367149758454,0.024154589371980676,0.0,0.028985507246376812,0.028985507246376812,0.0,0.0,0.033816425120772944,0.033816425120772944,0.0,0.033816425120772944,0.024154589371980676,0.033816425120772944,0.01932367149758454,0.01932367149758454,0.0,0.028985507246376812,0.024154589371980676,0.024154589371980676,0.024154589371980676
S12_D10 hbo,0.011976047904191617,0.023952095808383235,0.023952095808383235,0.017964071856287425,0.023952095808383235,0.017964071856287425,0.011976047904191617,0.0,0.011976047904191617,0.005988023952095809,0.03592814371257485,0.017964071856287425,0.03592814371257485,0.017964071856287425,0.023952095808383235,0.017964071856287425,0.011976047904191617,0.029940119760479042,0.029940119760479042,0.023952095808383235,0.0,0.0,0.0,0.03592814371257485,0.017964071856287425,0.029940119760479042,0.011976047904191617,0.023952095808383235,0.029940119760479042,0.029940119760479042,0.0,0.011976047904191617,0.023952095808383235,0.023952095808383235,0.0,0.029940119760479042,0.029940119760479042,0.0,0.0,0.03592814371257485,0.03592814371257485,0.0,0.03592814371257485,0.023952095808383235,0.03592814371257485,0.017964071856287425,0.017964071856287425,0.0,0.029940119760479042,0.023952095808383235,0.023952095808383235,0.023952095808383235
S12_D12 hbo,0.0,0.0,0.0,0.0,0.0,0.0,0.0,0.0,0.0,0.0,0.0,0.0,0.0,0.0,0.0,0.0,0.0,0.0,0.0,0.0,0.0,0.0,0.0,0.0,0.0,0.0,0.0,0.0,0.0,0.0,0.0,0.0,0.0,0.0,0.0,0.0,0.0,0.0,0.0,0.0,0.0,0.0,0.0,0.0,0.0,0.0,0.0,0.0,0.0,0.0,0.0,0.0
S12_D14 hbo,0.0,0.0,0.0,0.0,0.0,0.0,0.0,0.0,0.0,0.0,0.0,0.0,0.0,0.0,0.0,0.0,0.0,0.0,0.0,0.0,0.0,0.0,0.0,0.0,0.0,0.0,0.0,0.0,0.0,0.0,0.0,0.0,0.0,0.0,0.0,0.0,0.0,0.0,0.0,0.0,0.0,0.0,0.0,0.0,0.0,0.0,0.0,0.0,0.0,0.0,0.0,0.0
S13_D6 hbo,0.012448132780082987,0.024896265560165973,0.024896265560165973,0.02074688796680498,0.02074688796680498,0.02074688796680498,0.016597510373443983,0.0,0.016597510373443983,0.004149377593360996,0.03319502074688797,0.016597510373443983,0.03319502074688797,0.02074688796680498,0.024896265560165973,0.02074688796680498,0.012448132780082987,0.029045643153526972,0.029045643153526972,0.024896265560165973,0.0,0.0,0.0,0.03319502074688797,0.02074688796680498,0.029045643153526972,0.016597510373443983,0.024896265560165973,0.029045643153526972,0.024896265560165973,0.0,0.012448132780082987,0.016597510373443983,0.024896265560165973,0.0,0.029045643153526972,0.024896265560165973,0.0,0.0,0.03319502074688797,0.03734439834024896,0.0,0.03734439834024896,0.024896265560165973,0.03319502074688797,0.016597510373443983,0.02074688796680498,0.0,0.029045643153526972,0.024896265560165973,0.024896265560165973,0.024896265560165973
S13_D11 hbo,0.012448132780082987,0.024896265560165973,0.024896265560165973,0.02074688796680498,0.02074688796680498,0.02074688796680498,0.016597510373443983,0.0,0.016597510373443983,0.004149377593360996,0.03319502074688797,0.016597510373443983,0.03319502074688797,0.02074688796680498,0.024896265560165973,0.02074688796680498,0.012448132780082987,0.029045643153526972,0.029045643153526972,0.024896265560165973,0.0,0.0,0.0,0.03319502074688797,0.02074688796680498,0.029045643153526972,0.016597510373443983,0.024896265560165973,0.029045643153526972,0.024896265560165973,0.0,0.012448132780082987,0.016597510373443983,0.024896265560165973,0.0,0.029045643153526972,0.024896265560165973,0.0,0.0,0.03319502074688797,0.03734439834024896,0.0,0.03734439834024896,0.024896265560165973,0.03319502074688797,0.016597510373443983,0.02074688796680498,0.0,0.029045643153526972,0.024896265560165973,0.024896265560165973,0.024896265560165973
S13_D13 hbo,0.0,0.0,0.0,0.0,0.0,0.0,0.0,0.0,0.0,0.0,0.0,0.0,0.0,0.0,0.0,0.0,0.0,0.0,0.0,0.0,0.0,0.0,0.0,0.0,0.0,0.0,0.0,0.0,0.0,0.0,0.0,0.0,0.0,0.0,0.0,0.0,0.0,0.0,0.0,0.0,0.0,0.3333333333333333,0.6666666666666666,0.0,0.0,0.0,0.0,0.0,0.0,0.0,0.0,0.0
S13_D15 hbo,0.012096774193548387,0.024193548387096774,0.024193548387096774,0.020161290322580645,0.020161290322580645,0.020161290322580645,0.016129032258064516,0.0,0.016129032258064516,0.004032258064516129,0.03225806451612903,0.016129032258064516,0.03225806451612903,0.020161290322580645,0.024193548387096774,0.020161290322580645,0.012096774193548387,0.028225806451612902,0.028225806451612902,0.024193548387096774,0.0,0.0,0.0,0.03225806451612903,0.020161290322580645,0.028225806451612902,0.016129032258064516,0.024193548387096774,0.028225806451612902,0.024193548387096774,0.0,0.012096774193548387,0.016129032258064516,0.024193548387096774,0.0,0.028225806451612902,0.024193548387096774,0.0,0.0,0.03225806451612903,0.036290322580645164,0.0,0.06048387096774194,0.028225806451612902,0.03225806451612903,0.016129032258064516,0.020161290322580645,0.0,0.028225806451612902,0.024193548387096774,0.024193548387096774,0.024193548387096774
S14_D12 hbo,0.014925373134328358,0.024875621890547265,0.024875621890547265,0.01990049751243781,0.024875621890547265,0.01990049751243781,0.014925373134328358,0.0,0.014925373134328358,0.004975124378109453,0.029850746268656716,0.01990049751243781,0.029850746268656716,0.01990049751243781,0.024875621890547265,0.01990049751243781,0.014925373134328358,0.029850746268656716,0.029850746268656716,0.024875621890547265,0.0,0.0,0.0,0.029850746268656716,0.01990049751243781,0.029850746268656716,0.014925373134328358,0.024875621890547265,0.029850746268656716,0.029850746268656716,0.0,0.014925373134328358,0.01990049751243781,0.024875621890547265,0.0,0.029850746268656716,0.029850746268656716,0.0,0.0,0.029850746268656716,0.029850746268656716,0.0,0.03482587064676617,0.024875621890547265,0.029850746268656716,0.01990049751243781,0.01990049751243781,0.0,0.029850746268656716,0.024875621890547265,0.024875621890547265,0.024875621890547265
S14_D13 hbo,0.014354066985645933,0.023923444976076555,0.023923444976076555,0.019138755980861243,0.023923444976076555,0.019138755980861243,0.014354066985645933,0.0,0.014354066985645933,0.004784688995215311,0.03349282296650718,0.019138755980861243,0.03349282296650718,0.019138755980861243,0.023923444976076555,0.019138755980861243,0.014354066985645933,0.028708133971291867,0.028708133971291867,0.023923444976076555,0.0,0.0,0.0,0.03349282296650718,0.019138755980861243,0.028708133971291867,0.014354066985645933,0.023923444976076555,0.028708133971291867,0.028708133971291867,0.0,0.014354066985645933,0.019138755980861243,0.023923444976076555,0.0,0.028708133971291867,0.028708133971291867,0.0,0.0,0.03349282296650718,0.03827751196172249,0.0,0.03827751196172249,0.023923444976076555,0.03349282296650718,0.019138755980861243,0.019138755980861243,0.0,0.028708133971291867,0.023923444976076555,0.023923444976076555,0.023923444976076555
S14_D14 hbo,0.013793103448275862,0.027586206896551724,0.027586206896551724,0.020689655172413793,0.027586206896551724,0.020689655172413793,0.013793103448275862,0.0,0.013793103448275862,0.006896551724137931,0.027586206896551724,0.020689655172413793,0.027586206896551724,0.020689655172413793,0.027586206896551724,0.020689655172413793,0.013793103448275862,0.027586206896551724,0.027586206896551724,0.027586206896551724,0.0,0.0,0.0,0.027586206896551724,0.020689655172413793,0.027586206896551724,0.013793103448275862,0.027586206896551724,0.027586206896551724,0.027586206896551724,0.0,0.013793103448275862,0.027586206896551724,0.027586206896551724,0.0,0.027586206896551724,0.027586206896551724,0.0,0.0,0.027586206896551724,0.027586206896551724,0.0,0.027586206896551724,0.027586206896551724,0.027586206896551724,0.020689655172413793,0.020689655172413793,0.0,0.027586206896551724,0.027586206896551724,0.027586206896551724,0.027586206896551724
S14_D16 hbo,0.016216216216216217,0.02702702702702703,0.02702702702702703,0.021621621621621623,0.02702702702702703,0.021621621621621623,0.016216216216216217,0.0,0.016216216216216217,0.005405405405405406,0.02702702702702703,0.021621621621621623,0.02702702702702703,0.021621621621621623,0.02702702702702703,0.021621621621621623,0.016216216216216217,0.02702702702702703,0.02702702702702703,0.02702702702702703,0.0,0.0,0.0,0.02702702702702703,0.021621621621621623,0.02702702702702703,0.016216216216216217,0.02702702702702703,0.02702702702702703,0.02702702702702703,0.0,0.016216216216216217,0.021621621621621623,0.02702702702702703,0.0,0.02702702702702703,0.02702702702702703,0.0,0.0,0.02702702702702703,0.02702702702702703,0.0,0.02702702702702703,0.02702702702702703,0.02702702702702703,0.021621621621621623,0.021621621621621623,0.0,0.02702702702702703,0.02702702702702703,0.02702702702702703,0.02702702702702703
S15_D13 hbo,0.0,0.0,0.0,0.0,0.0,0.0,0.0,0.0,0.0,0.0,0.0,0.0,0.0,0.0,0.0,0.0,0.0,0.0,0.0,0.0,0.0,0.0,0.0,0.0,0.0,0.0,0.0,0.0,0.0,0.0,0.0,0.0,0.0,0.0,0.0,0.0,0.0,0.0,0.0,0.0,0.0,0.0,0.0,0.0,0.0,0.0,0.0,0.0,0.0,0.0,0.0,0.0
S15_D15 hbo,0.014492753623188406,0.024154589371980676,0.024154589371980676,0.01932367149758454,0.024154589371980676,0.01932367149758454,0.014492753623188406,0.0,0.014492753623188406,0.004830917874396135,0.033816425120772944,0.01932367149758454,0.033816425120772944,0.01932367149758454,0.024154589371980676,0.01932367149758454,0.014492753623188406,0.028985507246376812,0.028985507246376812,0.024154589371980676,0.0,0.0,0.0,0.033816425120772944,0.01932367149758454,0.028985507246376812,0.014492753623188406,0.024154589371980676,0.028985507246376812,0.028985507246376812,0.0,0.014492753623188406,0.01932367149758454,0.024154589371980676,0.0,0.028985507246376812,0.028985507246376812,0.0,0.0,0.033816425120772944,0.033816425120772944,0.0,0.033816425120772944,0.024154589371980676,0.033816425120772944,0.01932367149758454,0.01932367149758454,0.0,0.028985507246376812,0.024154589371980676,0.024154589371980676,0.024154589371980676
S15_D16 hbo,0.015,0.025,0.025,0.02,0.025,0.02,0.015,0.0,0.015,0.005,0.03,0.02,0.03,0.02,0.025,0.02,0.015,0.03,0.03,0.025,0.0,0.0,0.0,0.03,0.02,0.03,0.015,0.025,0.03,0.03,0.0,0.015,0.02,0.025,0.0,0.03,0.03,0.0,0.0,0.03,0.03,0.0,0.03,0.025,0.03,0.02,0.02,0.0,0.03,0.025,0.025,0.025
S16_D14 hbo,0.015,0.025,0.025,0.02,0.025,0.02,0.015,0.0,0.015,0.005,0.03,0.02,0.03,0.02,0.025,0.02,0.015,0.03,0.03,0.025,0.0,0.0,0.0,0.03,0.02,0.03,0.015,0.025,0.03,0.03,0.0,0.015,0.02,0.025,0.0,0.03,0.03,0.0,0.0,0.03,0.03,0.0,0.03,0.025,0.03,0.02,0.02,0.0,0.03,0.025,0.025,0.025
S16_D16 hbo,0.015,0.025,0.025,0.02,0.025,0.02,0.015,0.0,0.015,0.005,0.03,0.02,0.03,0.02,0.025,0.02,0.015,0.03,0.03,0.025,0.0,0.0,0.0,0.03,0.02,0.03,0.015,0.025,0.03,0.03,0.0,0.015,0.02,0.025,0.0,0.03,0.03,0.0,0.0,0.03,0.03,0.0,0.03,0.025,0.03,0.02,0.02,0.0,0.03,0.025,0.025,0.025
