,S1_D1 hbo,S1_D3 hbo,S2_D1 hbo,S2_D2 hbo,S2_D4 hbo,S3_D1 hbo,S3_D3 hbo,S3_D4 hbo,S3_D5 hbo,S4_D2 hbo,S4_D4 hbo,S4_D6 hbo,S4_D11 hbo,S5_D3 hbo,S5_D5 hbo,S5_D7 hbo,S6_D4 hbo,S6_D5 hbo,S6_D6 hbo,S6_D8 hbo,S7_D5 hbo,S7_D7 hbo,S7_D8 hbo,S8_D6 hbo,S8_D8 hbo,S8_D15 hbo,S9_D2 hbo,S9_D9 hbo,S9_D11 hbo,S10_D9 hbo,S10_D10 hbo,S10_D12 hbo,S11_D9 hbo,S11_D11 hbo,S11_D12 hbo,S11_D13 hbo,S12_D10 hbo,S12_D12 hbo,S12_D14 hbo,S13_D6 hbo,S13_D11 hbo,S13_D13 hbo,S13_D15 hbo,S14_D12 hbo,S14_D13 hbo,S14_D14 hbo,S14_D16 hbo,S15_D13 hbo,S15_D15 hbo,S15_D16 hbo,S16_D14 hbo,S16_D16 hbo
S1_D1 hbo,0.07296137339055794,0.0,0.0,0.0,0.0,0.0,0.0,0.0,0.0,0.04291845493562232,0.0,0.07296137339055794,0.060085836909871244,0.0,0.0,0.0,0.0,0.0,0.04721030042918455,0.06437768240343347,0.0,0.0,0.0,0.0,0.07296137339055794,0.0,0.0,0.0,0.0,0.0,0.055793991416309016,0.060085836909871244,0.0,0.05150214592274678,0.0,0.0,0.04721030042918455,0.07725321888412018,0.030042918454935622,0.0,0.0,0.0,0.0,0.055793991416309016,0.05150214592274678,0.04291845493562232,0.0,0.0,0.0,0.0,0.034334763948497854,0.060085836909871244
S1_D3 hbo,0.0,0.0,0.0,0.0,0.0,0.0,0.0,0.0,0.0,0.0,0.0,0.0,0.0,0.0,0.0,0.0,0.0,0.0,0.0,0.0,0.0,0.0,0.0,0.0,0.0,0.0,0.0,0.0,0.0,0.0,0.0,0.0,0.0,0.0,0.0,0.0,0.0,0.0,0.0,0.0,0.0,0.0,0.0,0.0,0.0,0.0,0.0,0.0,0.0,0.0,0.0,0.0
S2_D1 hbo,0.0,0.0,0.0,0.0,0.0,0.0,0.0,0.0,0.0,0.0,0.0,0.0,0.0,0.0,0.0,0.0,0.0,0.0,0.0,0.0,0.0,0.0,0.0,0.0,0.0,0.0,0.0,0.0,0.0,0.0,0.0,0.0,0.0,0.0,0.0,0.0,0.0,0.0,0.0,0.0,0.0,0.0,0.0,0.0,0.0,0.0,0.0,0.0,0.0,0.0,0.0,0.0
S2_D2 hbo,0.0,0.0,0.0,0.0,0.0,0.0,0.0,0.0,0.0,0.0,0.0,0.0,0.0,0.0,0.0,0.0,0.0,0.0,0.0,0.0,0.0,0.0,0.0,0.0,0.0,0.0,0.0,0.0,0.0,0.0,0.0,0.0,0.0,0.0,0.0,0.0,0.0,0.0,0.0,0.0,0.0,0.0,0.0,0.0,0.0,0.0,0.0,0.0,0.0,0.0,0.0,0.0
S2_D4 hbo,0.0,0.0,0.0,0.0,0.0,0.0,0.0,0.0,0.0,0.0,0.0,0.0,0.0,0.0,0.0,0.0,0.0,0.0,0.0,0.0,0.0,0.0,0.0,0.0,0.0,0.0,0.0,0.0,0.0,0.0,0.0,0.0,0.0,0.0,0.0,0.0,0.0,0.0,0.0,0.0,0.0,0.0,0.0,0.0,0.0,0.0,0.0,0.0,0.0,0.0,0.0,0.0
S3_D1 hbo,0.0,0.0,0.0,0.0,0.0,0.0,0.0,0.0,0.0,0.0,0.0,0.0,0.0,0.0,0.0,0.0,0.0,0.0,0.0,0.0,0.0,0.0,0.0,0.0,0.0,0.0,0.0,0.0,0.0,0.0,0.0,0.0,0.0,0.0,0.0,0.0,0.0,0.0,0.0,0.0,0.0,0.0,0.0,0.0,0.0,0.0,0.0,0.0,0.0,0.0,0.0,0.0
S3_D3 hbo,0.0,0.0,0.0,0.0,0.0,0.0,0.0,0.0,0.0,0.0,0.0,0.0,0.0,0.0,0.0,0.0,0.0,0.0,0.0,0.0,0.0,0.0,0.0,0.0,0.0,0.0,0.0,0.0,0.0,0.0,0.0,0.0,0.0,0.0,0.0,0.0,0.0,0.0,0.0,0.0,0.0,0.0,0.0,0.0,0.0,0.0,0.0,0.0,0.0,0.0,0.0,0.0
S3_D4 hbo,0.0,0.0,0.0,0.0,0.0,0.0,0.0,0.0,0.0,0.0,0.0,0.0,0.0,0.0,0.0,0.0,0.0,0.0,0.0,0.0,0.0,0.0,0.0,0.0,0.0,0.0,0.0,0.0,0.0,0.0,0.0,0.0,0.0,0.0,0.0,0.0,0.0,0.0,0.0,0.0,0.0,0.0,0.0,0.0,0.0,0.0,0.0,0.0,0.0,0.0,0.0,0.0
S3_D5 hbo,0.0,0.0,0.0,0.0,0.0,0.0,0.0,0.0,0.25,0.0,0.0,0.0,0.0,0.0,0.25,0.25,0.0,0.0,0.0,0.0,0.0,0.0,0.0,0.0,0.0,0.0,0.0,0.0,0.0,0.0,0.0,0.0,0.0,0.0,0.0,0.0,0.0,0.0,0.0,0.0,0.0,0.0,0.25,0.0,0.0,0.0,0.0,0.0,0.0,0.0,0.0,0.0
S4_D2 hbo,0.060240963855421686,0.0,0.0,0.0,0.0,0.0,0.0,0.0,0.0,0.05421686746987952,0.0,0.060240963855421686,0.060240963855421686,0.0,0.0,0.0,0.0,0.0,0.05421686746987952,0.060240963855421686,0.0,0.0,0.0,0.0,0.060240963855421686,0.0,0.0,0.0,0.0,0.0,0.060240963855421686,0.060240963855421686,0.0,0.060240963855421686,0.0,0.0,0.05421686746987952,0.060240963855421686,0.030120481927710843,0.0,0.0,0.0,0.0,0.060240963855421686,0.060240963855421686,0.04819277108433735,0.0,0.0,0.0,0.0,0.03614457831325301,0.060240963855421686
S4_D4 hbo,0.0,0.0,0.0,0.0,0.0,0.0,0.0,0.0,0.0,0.0,0.0,0.0,0.0,0.0,0.0,0.0,0.0,0.0,0.0,0.0,0.0,0.0,0.0,0.0,0.0,0.0,0.0,0.0,0.0,0.0,0.0,0.0,0.0,0.0,0.0,0.0,0.0,0.0,0.0,0.0,0.0,0.0,0.0,0.0,0.0,0.0,0.0,0.0,0.0,0.0,0.0,0.0
S4_D6 hbo,0.07373271889400922,0.0,0.0,0.0,0.0,0.0,0.0,0.0,0.0,0.04608294930875576,0.0,0.07373271889400922,0.059907834101382486,0.0,0.0,0.0,0.0,0.0,0.04608294930875576,0.06451612903225806,0.0,0.0,0.0,0.0,0.07373271889400922,0.0,0.0,0.0,0.0,0.0,0.055299539170506916,0.059907834101382486,0.0,0.05069124423963134,0.0,0.0,0.04608294930875576,0.07834101382488479,0.027649769585253458,0.0,0.0,0.0,0.0,0.059907834101382486,0.05069124423963134,0.041474654377880185,0.0,0.0,0.0,0.0,0.03225806451612903,0.059907834101382486
S4_D11 hbo,0.06722689075630252,0.0,0.0,0.0,0.0,0.0,0.0,0.0,0.0,0.04201680672268908,0.0,0.06302521008403361,0.06302521008403361,0.0,0.0,0.0,0.0,0.0,0.05042016806722689,0.06722689075630252,0.0,0.0,0.0,0.0,0.06722689075630252,0.0,0.0,0.0,0.0,0.0,0.058823529411764705,0.06302521008403361,0.0,0.0546218487394958,0.0,0.0,0.046218487394957986,0.06722689075630252,0.03361344537815126,0.0,0.0,0.0,0.0,0.0546218487394958,0.0546218487394958,0.046218487394957986,0.0,0.0,0.0,0.0,0.037815126050420166,0.06302521008403361
S5_D3 hbo,0.0,0.0,0.0,0.0,0.0,0.0,0.0,0.0,0.0,0.0,0.0,0.0,0.0,0.0,0.0,0.0,0.0,0.0,0.0,0.0,0.0,0.0,0.0,0.0,0.0,0.0,0.0,0.0,0.0,0.0,0.0,0.0,0.0,0.0,0.0,0.0,0.0,0.0,0.0,0.0,0.0,0.0,0.0,0.0,0.0,0.0,0.0,0.0,0.0,0.0,0.0,0.0
S5_D5 hbo,0.0,0.0,0.0,0.0,0.0,0.0,0.0,0.0,0.25,0.0,0.0,0.0,0.0,0.0,0.25,0.25,0.0,0.0,0.0,0.0,0.0,0.0,0.0,0.0,0.0,0.0,0.0,0.0,0.0,0.0,0.0,0.0,0.0,0.0,0.0,0.0,0.0,0.0,0.0,0.0,0.0,0.0,0.25,0.0,0.0,0.0,0.0,0.0,0.0,0.0,0.0,0.0
S5_D7 hbo,0.0,0.0,0.0,0.0,0.0,0.0,0.0,0.0,0.25,0.0,0.0,0.0,0.0,0.0,0.25,0.25,0.0,0.0,0.0,0.0,0.0,0.0,0.0,0.0,0.0,0.0,0.0,0.0,0.0,0.0,0.0,0.0,0.0,0.0,0.0,0.0,0.0,0.0,0.0,0.0,0.0,0.0,0.25,0.0,0.0,0.0,0.0,0.0,0.0,0.0,0.0,0.0
S6_D4 hbo,0.0,0.0,0.0,0.0,0.0,0.0,0.0,0.0,0.0,0.0,0.0,0.0,0.0,0.0,0.0,0.0,0.0,0.0,0.0,0.0,0.0,0.0,0.0,0.0,0.0,0.0,0.0,0.0,0.0,0.0,0.0,0.0,0.0,0.0,0.0,0.0,0.0,0.0,0.0,0.0,0.0,0.0,0.0,0.0,0.0,0.0,0.0,0.0,0.0,0.0,0.0,0.0
S6_D5 hbo,0.0,0.0,0.0,0.0,0.0,0.0,0.0,0.0,0.0,0.0,0.0,0.0,0.0,0.0,0.0,0.0,0.0,0.0,0.0,0.0,0.0,0.0,0.0,0.0,0.0,0.0,0.0,0.0,0.0,0.0,0.0,0.0,0.0,0.0,0.0,0.0,0.0,0.0,0.0,0.0,0.0,0.0,0.0,0.0,0.0,0.0,0.0,0.0,0.0,0.0,0.0,0.0
S6_D6 hbo,0.06074766355140187,0.0,0.0,0.0,0.0,0.0,0.0,0.0,0.0,0.04672897196261682,0.0,0.056074766355140186,0.06074766355140187,0.0,0.0,0.0,0.0,0.0,0.056074766355140186,0.06074766355140187,0.0,0.0,0.0,0.0,0.06074766355140187,0.0,0.0,0.0,0.0,0.0,0.06074766355140187,0.06074766355140187,0.0,0.06074766355140187,0.0,0.0,0.0514018691588785,0.06074766355140187,0.037383177570093455,0.0,0.0,0.0,0.0,0.0514018691588785,0.06074766355140187,0.0514018691588785,0.0,0.0,0.0,0.0,0.04205607476635514,0.06074766355140187
S6_D8 hbo,0.07017543859649122,0.0,0.0,0.0,0.0,0.0,0.0,0.0,0.0,0.043859649122807015,0.0,0.07017543859649122,0.06140350877192982,0.0,0.0,0.0,0.0,0.0,0.04824561403508772,0.06578947368421052,0.0,0.0,0.0,0.0,0.07017543859649122,0.0,0.0,0.0,0.0,0.0,0.05701754385964912,0.06140350877192982,0.0,0.05263157894736842,0.0,0.0,0.04824561403508772,0.07017543859649122,0.03070175438596491,0.0,0.0,0.0,0.0,0.05701754385964912,0.05263157894736842,0.043859649122807015,0.0,0.0,0.0,0.0,0.03508771929824561,0.06140350877192982
S7_D5 hbo,0.0,0.0,0.0,0.0,0.0,0.0,0.0,0.0,0.0,0.0,0.0,0.0,0.0,0.0,0.0,0.0,0.0,0.0,0.0,0.0,0.0,0.0,0.0,0.0,0.0,0.0,0.0,0.0,0.0,0.0,0.0,0.0,0.0,0.0,0.0,0.0,0.0,0.0,0.0,0.0,0.0,0.0,0.0,0.0,0.0,0.0,0.0,0.0,0.0,0.0,0.0,0.0
S7_D7 hbo,0.0,0.0,0.0,0.0,0.0,0.0,0.0,0.0,0.0,0.0,0.0,0.0,0.0,0.0,0.0,0.0,0.0,0.0,0.0,0.0,0.0,0.0,0.0,0.0,0.0,0.0,0.0,0.0,0.0,0.0,0.0,0.0,0.0,0.0,0.0,0.0,0.0,0.0,0.0,0.0,0.0,0.0,0.0,0.0,0.0,0.0,0.0,0.0,0.0,0.0,0.0,0.0
S7_D8 hbo,0.0,0.0,0.0,0.0,0.0,0.0,0.0,0.0,0.0,0.0,0.0,0.0,0.0,0.0,0.0,0.0,0.0,0.0,0.0,0.0,0.0,0.0,0.0,0.0,0.0,0.0,0.0,0.0,0.0,0.0,0.0,0.0,0.0,0.0,0.0,0.0,0.0,0.0,0.0,0.0,0.0,0.0,0.0,0.0,0.0,0.0,0.0,0.0,0.0,0.0,0.0,0.0
S8_D6 hbo,0.0,0.0,0.0,0.0,0.0,0.0,0.0,0.0,0.0,0.0,0.0,0.0,0.0,0.0,0.0,0.0,0.0,0.0,0.0,0.0,0.0,0.0,0.0,0.0,0.0,0.0,0.0,0.0,0.0,0.0,0.0,0.0,0.0,0.0,0.0,0.0,0.0,0.0,0.0,0.0,0.0,0.0,0.0,0.0,0.0,0.0,0.0,0.0,0.0,0.0,0.0,0.0
S8_D8 hbo,0.06976744186046512,0.0,0.0,0.0,0.0,0.0,0.0,0.0,0.0,0.03875968992248062,0.0,0.06589147286821706,0.06201550387596899,0.0,0.0,0.0,0.0,0.0,0.050387596899224806,0.06201550387596899,0.0,0.0,0.0,0.0,0.07364341085271318,0.0,0.0,0.0,0.0,0.0,0.05813953488372093,0.05813953488372093,0.0,0.05426356589147287,0.0,0.0,0.04263565891472868,0.07751937984496124,0.03488372093023256,0.0,0.0,0.0,0.0,0.050387596899224806,0.05426356589147287,0.046511627906976744,0.0,0.0,0.0,0.0,0.03875968992248062,0.06201550387596899
S8_D15 hbo,0.0,0.0,0.0,0.0,0.0,0.0,0.0,0.0,0.0,0.0,0.0,0.0,0.0,0.0,0.0,0.0,0.0,0.0,0.0,0.0,0.0,0.0,0.0,0.0,0.0,0.0,0.0,0.0,0.0,0.0,0.0,0.0,0.0,0.0,0.0,0.0,0.0,0.0,0.0,0.0,0.0,0.0,0.0,0.0,0.0,0.0,0.0,0.0,0.0,0.0,0.0,0.0
S9_D2 hbo,0.0,0.0,0.0,0.0,0.0,0.0,0.0,0.0,0.0,0.0,0.0,0.0,0.0,0.0,0.0,0.0,0.0,0.0,0.0,0.0,0.0,0.0,0.0,0.0,0.0,0.0,0.0,0.0,0.0,0.0,0.0,0.0,0.0,0.0,0.0,0.0,0.0,0.0,0.0,0.0,0.0,0.0,0.0,0.0,0.0,0.0,0.0,0.0,0.0,0.0,0.0,0.0
S9_D9 hbo,0.0,0.0,0.0,0.0,0.0,0.0,0.0,0.0,0.0,0.0,0.0,0.0,0.0,0.0,0.0,0.0,0.0,0.0,0.0,0.0,0.0,0.0,0.0,0.0,0.0,0.0,0.0,0.0,0.0,0.0,0.0,0.0,0.0,0.0,0.0,0.0,0.0,0.0,0.0,0.0,0.0,0.0,0.0,0.0,0.0,0.0,0.0,0.0,0.0,0.0,0.0,0.0
S9_D11 hbo,0.0,0.0,0.0,0.0,0.0,0.0,0.0,0.0,0.25,0.0,0.0,0.0,0.0,0.0,0.25,0.25,0.0,0.0,0.0,0.0,0.0,0.0,0.0,0.0,0.0,0.0,0.0,0.0,0.0,0.0,0.0,0.0,0.0,0.0,0.0,0.0,0.0,0.0,0.0,0.0,0.0,0.0,0.25,0.0,0.0,0.0,0.0,0.0,0.0,0.0,0.0,0.0
S10_D9 hbo,0.0,0.0,0.0,0.0,0.0,0.0,0.0,0.0,0.0,0.0,0.0,0.0,0.0,0.0,0.0,0.0,0.0,0.0,0.0,0.0,0.0,0.0,0.0,0.0,0.0,0.0,0.0,0.0,0.0,0.0,0.0,0.0,0.0,0.0,0.0,0.0,0.0,0.0,0.0,0.0,0.0,0.0,0.0,0.0,0.0,0.0,0.0,0.0,0.0,0.0,0.0,0.0
S10_D10 hbo,0.06437768240343347,0.0,0.0,0.0,0.0,0.0,0.0,0.0,0.0,0.04291845493562232,0.0,0.060085836909871244,0.06437768240343347,0.0,0.0,0.0,0.0,0.0,0.05150214592274678,0.06437768240343347,0.0,0.0,0.0,0.0,0.06437768240343347,0.0,0.0,0.0,0.0,0.0,0.060085836909871244,0.06437768240343347,0.0,0.055793991416309016,0.0,0.0,0.04721030042918455,0.06437768240343347,0.034334763948497854,0.0,0.0,0.0,0.0,0.055793991416309016,0.055793991416309016,0.04721030042918455,0.0,0.0,0.0,0.0,0.03862660944206009,0.06437768240343347
S10_D12 hbo,0.06696428571428571,0.0,0.0,0.0,0.0,0.0,0.0,0.0,0.0,0.044642857142857144,0.0,0.06696428571428571,0.0625,0.0,0.0,0.0,0.0,0.0,0.049107142857142856,0.06696428571428571,0.0,0.0,0.0,0.0,0.06696428571428571,0.0,0.0,0.0,0.0,0.0,0.05803571428571429,0.0625,0.0,0.05357142857142857,0.0,0.0,0.049107142857142856,0.06696428571428571,0.03125,0.0,0.0,0.0,0.0,0.05803571428571429,0.05357142857142857,0.044642857142857144,0.0,0.0,0.0,0.0,0.03571428571428571,0.0625
S11_D9 hbo,0.0,0.0,0.0,0.0,0.0,0.0,0.0,0.0,0.0,0.0,0.0,0.0,0.0,0.0,0.0,0.0,0.0,0.0,0.0,0.0,0.0,0.0,0.0,0.0,0.0,0.0,0.0,0.0,0.0,0.0,0.0,0.0,0.0,0.0,0.0,0.0,0.0,0.0,0.0,0.0,0.0,0.0,0.0,0.0,0.0,0.0,0.0,0.0,0.0,0.0,0.0,0.0
S11_D11 hbo,0.05714285714285714,0.0,0.0,0.0,0.0,0.0,0.0,0.0,0.0,0.04081632653061224,0.0,0.053061224489795916,0.061224489795918366,0.0,0.0,0.0,0.0,0.0,0.053061224489795916,0.05714285714285714,0.0,0.0,0.0,0.0,0.0653061224489796,0.0,0.0,0.0,0.0,0.0,0.061224489795918366,0.05714285714285714,0.0,0.0653061224489796,0.0,0.0,0.044897959183673466,0.061224489795918366,0.044897959183673466,0.0,0.0,0.0,0.0,0.04897959183673469,0.0653061224489796,0.05714285714285714,0.0,0.0,0.0,0.0,0.044897959183673466,0.061224489795918366
S11_D12 hbo,0.0,0.0,0.0,0.0,0.0,0.0,0.0,0.0,0.0,0.0,0.0,0.0,0.0,0.0,0.0,0.0,0.0,0.0,0.0,0.0,0.0,0.0,0.0,0.0,0.0,0.0,0.0,0.0,0.0,0.0,0.0,0.0,0.0,0.0,0.0,0.0,0.0,0.0,0.0,0.0,0.0,0.0,0.0,0.0,0.0,0.0,0.0,0.0,0.0,0.0,0.0,0.0
S11_D13 hbo,0.0,0.0,0.0,0.0,0.0,0.0,0.0,0.0,0.0,0.0,0.0,0.0,0.0,0.0,0.0,0.0,0.0,0.0,0.0,0.0,0.0,0.0,0.0,0.0,0.0,0.0,0.0,0.0,0.0,0.0,0.0,0.0,0.0,0.0,0.0,0.0,0.0,0.0,0.0,0.0,0.0,0.0,0.0,0.0,0.0,0.0,0.0,0.0,0.0,0.0,0.0,0.0
S12_D10 hbo,0.059782608695652176,0.0,0.0,0.0,0.0,0.0,0.0,0.0,0.0,0.05434782608695652,0.0,0.059782608695652176,0.059782608695652176,0.0,0.0,0.0,0.0,0.0,0.05434782608695652,0.059782608695652176,0.0,0.0,0.0,0.0,0.059782608695652176,0.0,0.0,0.0,0.0,0.0,0.059782608695652176,0.059782608695652176,0.0,0.059782608695652176,0.0,0.0,0.05434782608695652,0.059782608695652176,0.03260869565217391,0.0,0.0,0.0,0.0,0.059782608695652176,0.059782608695652176,0.04891304347826087,0.0,0.0,0.0,0.0,0.03804347826086957,0.059782608695652176
S12_D12 hbo,0.07258064516129033,0.0,0.0,0.0,0.0,0.0,0.0,0.0,0.0,0.04032258064516129,0.0,0.06854838709677419,0.06048387096774194,0.0,0.0,0.0,0.0,0.0,0.04838709677419355,0.06451612903225806,0.0,0.0,0.0,0.0,0.07258064516129033,0.0,0.0,0.0,0.0,0.0,0.056451612903225805,0.06048387096774194,0.0,0.05241935483870968,0.0,0.0,0.04435483870967742,0.08064516129032258,0.03225806451612903,0.0,0.0,0.0,0.0,0.05241935483870968,0.05241935483870968,0.04435483870967742,0.0,0.0,0.0,0.0,0.036290322580645164,0.06048387096774194
S12_D14 hbo,0.05232558139534884,0.0,0.0,0.0,0.0,0.0,0.0,0.0,0.0,0.040697674418604654,0.0,0.046511627906976744,0.05813953488372093,0.0,0.0,0.0,0.0,0.0,0.05813953488372093,0.05232558139534884,0.0,0.0,0.0,0.0,0.06395348837209303,0.0,0.0,0.0,0.0,0.0,0.05813953488372093,0.05232558139534884,0.0,0.06395348837209303,0.0,0.0,0.046511627906976744,0.05813953488372093,0.05813953488372093,0.0,0.0,0.0,0.0,0.040697674418604654,0.06395348837209303,0.06395348837209303,0.0,0.0,0.0,0.0,0.06395348837209303,0.05813953488372093
S13_D6 hbo,0.0,0.0,0.0,0.0,0.0,0.0,0.0,0.0,0.0,0.0,0.0,0.0,0.0,0.0,0.0,0.0,0.0,0.0,0.0,0.0,0.0,0.0,0.0,0.0,0.0,0.0,0.0,0.0,0.0,0.0,0.0,0.0,0.0,0.0,0.0,0.0,0.0,0.0,0.0,0.0,0.0,0.0,0.0,0.0,0.0,0.0,0.0,0.0,0.0,0.0,0.0,0.0
S13_D11 hbo,0.0,0.0,0.0,0.0,0.0,0.0,0.0,0.0,0.0,0.0,0.0,0.0,0.0,0.0,0.0,0.0,0.0,0.0,0.0,0.0,0.0,0.0,0.0,0.0,0.0,0.0,0.0,0.0,0.0,0.0,0.0,0.0,0.0,0.0,0.0,0.0,0.0,0.0,0.0,0.0,0.0,0.0,0.0,0.0,0.0,0.0,0.0,0.0,0.0,0.0,0.0,0.0
S13_D13 hbo,0.0,0.0,0.0,0.0,0.0,0.0,0.0,0.0,0.0,0.0,0.0,0.0,0.0,0.0,0.0,0.0,0.0,0.0,0.0,0.0,0.0,0.0,0.0,0.0,0.0,0.0,0.0,0.0,0.0,0.0,0.0,0.0,0.0,0.0,0.0,0.0,0.0,0.0,0.0,0.0,0.0,0.0,0.0,0.0,0.0,0.0,0.0,0.0,0.0,0.0,0.0,0.0
S13_D15 hbo,0.0,0.0,0.0,0.0,0.0,0.0,0.0,0.0,0.25,0.0,0.0,0.0,0.0,0.0,0.25,0.25,0.0,0.0,0.0,0.0,0.0,0.0,0.0,0.0,0.0,0.0,0.0,0.0,0.0,0.0,0.0,0.0,0.0,0.0,0.0,0.0,0.0,0.0,0.0,0.0,0.0,0.0,0.25,0.0,0.0,0.0,0.0,0.0,0.0,0.0,0.0,0.0
S14_D12 hbo,0.06842105263157895,0.0,0.0,0.0,0.0,0.0,0.0,0.0,0.0,0.04736842105263158,0.0,0.06842105263157895,0.06315789473684211,0.0,0.0,0.0,0.0,0.0,0.04736842105263158,0.06842105263157895,0.0,0.0,0.0,0.0,0.06842105263157895,0.0,0.0,0.0,0.0,0.0,0.05789473684210526,0.06315789473684211,0.0,0.05263157894736842,0.0,0.0,0.04736842105263158,0.06842105263157895,0.02631578947368421,0.0,0.0,0.0,0.0,0.06315789473684211,0.05263157894736842,0.042105263157894736,0.0,0.0,0.0,0.0,0.031578947368421054,0.06315789473684211
S14_D13 hbo,0.05714285714285714,0.0,0.0,0.0,0.0,0.0,0.0,0.0,0.0,0.04081632653061224,0.0,0.053061224489795916,0.061224489795918366,0.0,0.0,0.0,0.0,0.0,0.053061224489795916,0.05714285714285714,0.0,0.0,0.0,0.0,0.0653061224489796,0.0,0.0,0.0,0.0,0.0,0.061224489795918366,0.05714285714285714,0.0,0.0653061224489796,0.0,0.0,0.044897959183673466,0.061224489795918366,0.044897959183673466,0.0,0.0,0.0,0.0,0.04897959183673469,0.0653061224489796,0.05714285714285714,0.0,0.0,0.0,0.0,0.044897959183673466,0.061224489795918366
S14_D14 hbo,0.05309734513274336,0.0,0.0,0.0,0.0,0.0,0.0,0.0,0.0,0.04424778761061947,0.0,0.048672566371681415,0.05752212389380531,0.0,0.0,0.0,0.0,0.0,0.05752212389380531,0.05309734513274336,0.0,0.0,0.0,0.0,0.061946902654867256,0.0,0.0,0.0,0.0,0.0,0.05752212389380531,0.05309734513274336,0.0,0.07079646017699115,0.0,0.0,0.048672566371681415,0.05752212389380531,0.048672566371681415,0.0,0.0,0.0,0.0,0.04424778761061947,0.07079646017699115,0.06637168141592921,0.0,0.0,0.0,0.0,0.048672566371681415,0.05752212389380531
S14_D16 hbo,0.0,0.0,0.0,0.0,0.0,0.0,0.0,0.0,0.0,0.0,0.0,0.0,0.0,0.0,0.0,0.0,0.0,0.0,0.0,0.0,0.0,0.0,0.0,0.0,0.0,0.0,0.0,0.0,0.0,0.0,0.0,0.0,0.0,0.0,0.0,0.0,0.0,0.0,0.0,0.0,0.0,0.0,0.0,0.0,0.0,0.0,0.0,0.0,0.0,0.0,0.0,0.0
S15_D13 hbo,0.0,0.0,0.0,0.0,0.0,0.0,0.0,0.0,0.0,0.0,0.0,0.0,0.0,0.0,0.0,0.0,0.0,0.0,0.0,0.0,0.0,0.0,0.0,0.0,0.0,0.0,0.0,0.0,0.0,0.0,0.0,0.0,0.0,0.0,0.0,0.0,0.0,0.0,0.0,0.0,0.0,0.0,0.0,0.0,0.0,0.0,0.0,0.0,0.0,0.0,0.0,0.0
S15_D15 hbo,0.0,0.0,0.0,0.0,0.0,0.0,0.0,0.0,0.0,0.0,0.0,0.0,0.0,0.0,0.0,0.0,0.0,0.0,0.0,0.0,0.0,0.0,0.0,0.0,0.0,0.0,0.0,0.0,0.0,0.0,0.0,0.0,0.0,0.0,0.0,0.0,0.0,0.0,0.0,0.0,0.0,0.0,0.0,0.0,0.0,0.0,0.0,0.0,0.0,0.0,0.0,0.0
S15_D16 hbo,0.0,0.0,0.0,0.0,0.0,0.0,0.0,0.0,0.0,0.0,0.0,0.0,0.0,0.0,0.0,0.0,0.0,0.0,0.0,0.0,0.0,0.0,0.0,0.0,0.0,0.0,0.0,0.0,0.0,0.0,0.0,0.0,0.0,0.0,0.0,0.0,0.0,0.0,0.0,0.0,0.0,0.0,0.0,0.0,0.0,0.0,0.0,0.0,0.0,0.0,0.0,0.0
S16_D14 hbo,0.054945054945054944,0.0,0.0,0.0,0.0,0.0,0.0,0.0,0.0,0.04395604395604396,0.0,0.04945054945054945,0.06043956043956044,0.0,0.0,0.0,0.0,0.0,0.06043956043956044,0.054945054945054944,0.0,0.0,0.0,0.0,0.06043956043956044,0.0,0.0,0.0,0.0,0.0,0.06043956043956044,0.054945054945054944,0.0,0.06043956043956044,0.0,0.0,0.04945054945054945,0.06043956043956044,0.04945054945054945,0.0,0.0,0.0,0.0,0.04395604395604396,0.06043956043956044,0.06043956043956044,0.0,0.0,0.0,0.0,0.054945054945054944,0.06043956043956044
S16_D16 hbo,0.06722689075630252,0.0,0.0,0.0,0.0,0.0,0.0,0.0,0.0,0.04201680672268908,0.0,0.06302521008403361,0.06302521008403361,0.0,0.0,0.0,0.0,0.0,0.05042016806722689,0.06722689075630252,0.0,0.0,0.0,0.0,0.06722689075630252,0.0,0.0,0.0,0.0,0.0,0.058823529411764705,0.06302521008403361,0.0,0.0546218487394958,0.0,0.0,0.046218487394957986,0.06722689075630252,0.03361344537815126,0.0,0.0,0.0,0.0,0.0546218487394958,0.0546218487394958,0.046218487394957986,0.0,0.0,0.0,0.0,0.037815126050420166,0.06302521008403361
