,S1_D1 hbo,S1_D3 hbo,S2_D1 hbo,S2_D2 hbo,S2_D4 hbo,S3_D1 hbo,S3_D3 hbo,S3_D4 hbo,S3_D5 hbo,S4_D2 hbo,S4_D4 hbo,S4_D6 hbo,S4_D11 hbo,S5_D3 hbo,S5_D5 hbo,S5_D7 hbo,S6_D4 hbo,S6_D5 hbo,S6_D6 hbo,S6_D8 hbo,S7_D5 hbo,S7_D7 hbo,S7_D8 hbo,S8_D6 hbo,S8_D8 hbo,S8_D15 hbo,S9_D2 hbo,S9_D9 hbo,S9_D11 hbo,S10_D9 hbo,S10_D10 hbo,S10_D12 hbo,S11_D9 hbo,S11_D11 hbo,S11_D12 hbo,S11_D13 hbo,S12_D10 hbo,S12_D12 hbo,S12_D14 hbo,S13_D6 hbo,S13_D11 hbo,S13_D13 hbo,S13_D15 hbo,S14_D12 hbo,S14_D13 hbo,S14_D14 hbo,S14_D16 hbo,S15_D13 hbo,S15_D15 hbo,S15_D16 hbo,S16_D14 hbo,S16_D16 hbo
S1_D1 hbo,0.0,0.0,0.0,0.0,0.0,0.0,0.0,0.0,0.0,0.0,0.0,0.0,0.0,0.0,0.0,0.0,0.0,0.0,0.0,0.0,0.0,0.0,0.0,0.0,0.0,0.0,0.0,0.0,0.0,0.0,0.0,0.0,0.0,0.0,0.0,0.0,0.0,0.0,0.0,0.0,0.0,0.0,0.0,0.0,0.0,0.0,0.0,0.0,0.0,0.0,0.0,0.0
S1_D3 hbo,0.0,0.0,0.0,0.0,0.0,0.0,0.0,0.0,0.0,0.0,0.0,0.0,0.0,0.0,0.0,0.0,0.0,0.0,0.0,0.0,0.0,0.0,0.0,0.0,0.0,0.0,0.0,0.0,0.0,0.0,0.0,0.0,0.0,0.0,0.0,0.0,0.0,0.0,0.0,0.0,0.0,0.0,0.0,0.0,0.0,0.0,0.0,0.0,0.0,0.0,0.0,0.0
S2_D1 hbo,0.0,0.0,0.0958904109589041,0.0,0.0,0.04794520547945205,0.08904109589041095,0.0,0.10273972602739725,0.0,0.0,0.00684931506849315,0.0,0.0684931506849315,0.08904109589041095,0.0,0.0,0.0,0.0,0.0,0.00684931506849315,0.0,0.0,0.0,0.0,0.0,0.0821917808219178,0.0,0.0,0.0,0.0,0.10273972602739725,0.03424657534246575,0.0,0.0,0.06164383561643835,0.0,0.0,0.0,0.0,0.0,0.00684931506849315,0.0,0.10273972602739725,0.0,0.0,0.0,0.0,0.0,0.0,0.0,0.10273972602739725
S2_D2 hbo,0.0,0.0,0.0,0.0,0.0,0.0,0.0,0.0,0.0,0.0,0.0,0.0,0.0,0.0,0.0,0.0,0.0,0.0,0.0,0.0,0.0,0.0,0.0,0.0,0.0,0.0,0.0,0.0,0.0,0.0,0.0,0.0,0.0,0.0,0.0,0.0,0.0,0.0,0.0,0.0,0.0,0.0,0.0,0.0,0.0,0.0,0.0,0.0,0.0,0.0,0.0,0.0
S2_D4 hbo,0.0,0.0,0.0,0.0,0.017857142857142856,0.0,0.0,0.0,0.0,0.03571428571428571,0.03571428571428571,0.0,0.03571428571428571,0.0,0.0,0.0,0.03571428571428571,0.03571428571428571,0.03571428571428571,0.017857142857142856,0.0,0.03571428571428571,0.03571428571428571,0.03571428571428571,0.03571428571428571,0.03571428571428571,0.0,0.0,0.03571428571428571,0.0,0.0,0.0,0.03571428571428571,0.03571428571428571,0.03571428571428571,0.03571428571428571,0.0,0.0,0.0,0.03571428571428571,0.03571428571428571,0.03571428571428571,0.03571428571428571,0.0,0.03571428571428571,0.03571428571428571,0.03571428571428571,0.03571428571428571,0.03571428571428571,0.03571428571428571,0.03571428571428571,0.0
S3_D1 hbo,0.0,0.0,0.0958904109589041,0.0,0.0,0.0821917808219178,0.0958904109589041,0.0,0.0958904109589041,0.0,0.0,0.0,0.0,0.0958904109589041,0.0958904109589041,0.0,0.0,0.0,0.0,0.0,0.0,0.0,0.0,0.0,0.0,0.0,0.0958904109589041,0.0,0.0,0.0,0.0,0.0958904109589041,0.0,0.0,0.0,0.0547945205479452,0.0,0.0,0.0,0.0,0.0,0.0,0.0,0.0958904109589041,0.0,0.0,0.0,0.0,0.0,0.0,0.0,0.0958904109589041
S3_D3 hbo,0.0,0.0,0.0763888888888889,0.0,0.0,0.04861111111111111,0.1111111111111111,0.0,0.1111111111111111,0.0,0.0,0.0,0.0,0.06944444444444445,0.09722222222222222,0.0,0.0,0.0,0.0,0.0,0.006944444444444444,0.0,0.0,0.0,0.0,0.0,0.11805555555555555,0.0,0.0,0.0,0.0,0.10416666666666667,0.013888888888888888,0.0,0.0,0.041666666666666664,0.0,0.0,0.0,0.0,0.0,0.0,0.0,0.08333333333333333,0.0,0.0,0.0,0.0,0.0,0.0,0.0,0.11805555555555555
S3_D4 hbo,0.0,0.0,0.0,0.0,0.0,0.0,0.0,0.0,0.0,0.0,0.0,0.0,0.0,0.0,0.0,0.0,0.0,0.0,0.0,0.0,0.0,0.0,0.0,0.0,0.0,0.0,0.0,0.0,0.0,0.0,0.0,0.0,0.0,0.0,0.0,0.0,0.0,0.0,0.0,0.0,0.0,0.0,0.0,0.0,0.0,0.0,0.0,0.0,0.0,0.0,0.0,0.0
S3_D5 hbo,0.0,0.0,0.08284023668639054,0.0,0.0,0.04142011834319527,0.10059171597633136,0.0,0.11242603550295859,0.0,0.0,0.005917159763313609,0.0,0.05917159763313609,0.08875739644970414,0.0,0.0,0.0,0.0,0.0,0.005917159763313609,0.0,0.0,0.0,0.0,0.0,0.10059171597633136,0.0,0.0,0.0,0.0,0.10650887573964497,0.029585798816568046,0.0,0.0,0.05325443786982249,0.0,0.0,0.0,0.0,0.0,0.005917159763313609,0.0,0.08875739644970414,0.0,0.0,0.0,0.0,0.0,0.0,0.0,0.11834319526627218
S4_D2 hbo,0.0,0.0,0.0,0.0,0.009433962264150943,0.0,0.0,0.0,0.0,0.03773584905660377,0.02830188679245283,0.0,0.04716981132075472,0.0,0.0,0.0,0.018867924528301886,0.018867924528301886,0.04716981132075472,0.009433962264150943,0.0,0.02830188679245283,0.02830188679245283,0.03773584905660377,0.02830188679245283,0.03773584905660377,0.0,0.0,0.03773584905660377,0.0,0.0,0.0,0.04716981132075472,0.04716981132075472,0.03773584905660377,0.04716981132075472,0.0,0.0,0.0,0.04716981132075472,0.03773584905660377,0.04716981132075472,0.04716981132075472,0.018867924528301886,0.018867924528301886,0.02830188679245283,0.02830188679245283,0.02830188679245283,0.04716981132075472,0.02830188679245283,0.02830188679245283,0.0
S4_D4 hbo,0.0,0.0,0.0,0.0,0.010416666666666666,0.0,0.0,0.0,0.0,0.041666666666666664,0.03125,0.0,0.041666666666666664,0.0,0.0,0.0,0.020833333333333332,0.020833333333333332,0.041666666666666664,0.010416666666666666,0.0,0.03125,0.03125,0.041666666666666664,0.03125,0.041666666666666664,0.0,0.0,0.041666666666666664,0.0,0.0,0.0,0.041666666666666664,0.041666666666666664,0.041666666666666664,0.041666666666666664,0.0,0.0,0.0,0.041666666666666664,0.041666666666666664,0.041666666666666664,0.041666666666666664,0.010416666666666666,0.020833333333333332,0.03125,0.03125,0.03125,0.041666666666666664,0.03125,0.03125,0.0
S4_D6 hbo,0.0,0.0,0.125,0.0,0.0,0.0,0.0,0.0,0.125,0.0,0.0,0.0625,0.0,0.0,0.0,0.0,0.0,0.0,0.0,0.0,0.0,0.0,0.0,0.0,0.0,0.0,0.0,0.0,0.0,0.0,0.0,0.125,0.125,0.0,0.0,0.125,0.0,0.0,0.0,0.0,0.0,0.0625,0.0,0.125,0.0,0.0,0.0,0.0,0.0,0.0,0.0,0.125
S4_D11 hbo,0.0,0.0,0.016,0.0,0.008,0.0,0.0,0.0,0.016,0.032,0.024,0.016,0.048,0.0,0.0,0.0,0.016,0.016,0.04,0.008,0.0,0.024,0.024,0.032,0.024,0.032,0.0,0.0,0.032,0.0,0.0,0.008,0.056,0.048,0.032,0.056,0.0,0.0,0.0,0.04,0.032,0.056,0.04,0.032,0.016,0.024,0.024,0.024,0.04,0.024,0.024,0.016
S5_D3 hbo,0.0,0.0,0.09803921568627451,0.0,0.0,0.06862745098039216,0.09803921568627451,0.0,0.09803921568627451,0.0,0.0,0.0,0.0,0.08823529411764706,0.09803921568627451,0.0,0.0,0.0,0.0,0.0,0.0,0.0,0.0,0.0,0.0,0.0,0.09803921568627451,0.0,0.0,0.0,0.0,0.09803921568627451,0.00980392156862745,0.0,0.0,0.049019607843137254,0.0,0.0,0.0,0.0,0.0,0.0,0.0,0.09803921568627451,0.0,0.0,0.0,0.0,0.0,0.0,0.0,0.09803921568627451
S5_D5 hbo,0.0,0.0,0.07971014492753623,0.0,0.0,0.050724637681159424,0.10869565217391304,0.0,0.10869565217391304,0.0,0.0,0.0,0.0,0.07246376811594203,0.10144927536231885,0.0,0.0,0.0,0.0,0.0,0.007246376811594203,0.0,0.0,0.0,0.0,0.0,0.10869565217391304,0.0,0.0,0.0,0.0,0.10869565217391304,0.014492753623188406,0.0,0.0,0.043478260869565216,0.0,0.0,0.0,0.0,0.0,0.0,0.0,0.08695652173913043,0.0,0.0,0.0,0.0,0.0,0.0,0.0,0.10869565217391304
S5_D7 hbo,0.0,0.0,0.0,0.0,0.0,0.0,0.0,0.0,0.0,0.0,0.0,0.0,0.0,0.0,0.0,0.0,0.0,0.0,0.0,0.0,0.0,0.0,0.0,0.0,0.0,0.0,0.0,0.0,0.0,0.0,0.0,0.0,0.0,0.0,0.0,0.0,0.0,0.0,0.0,0.0,0.0,0.0,0.0,0.0,0.0,0.0,0.0,0.0,0.0,0.0,0.0,0.0
S6_D4 hbo,0.0,0.0,0.0,0.0,0.0125,0.0,0.0,0.0,0.0,0.0375,0.0375,0.0,0.0375,0.0,0.0,0.0,0.025,0.025,0.0375,0.0125,0.0,0.0375,0.0375,0.0375,0.0375,0.0375,0.0,0.0,0.0375,0.0,0.0,0.0,0.0375,0.0375,0.0375,0.0375,0.0,0.0,0.0,0.0375,0.0375,0.0375,0.0375,0.0,0.025,0.0375,0.0375,0.0375,0.0375,0.0375,0.0375,0.0
S6_D5 hbo,0.0,0.0,0.0,0.0,0.0125,0.0,0.0,0.0,0.0,0.0375,0.0375,0.0,0.0375,0.0,0.0,0.0,0.025,0.025,0.0375,0.0125,0.0,0.0375,0.0375,0.0375,0.0375,0.0375,0.0,0.0,0.0375,0.0,0.0,0.0,0.0375,0.0375,0.0375,0.0375,0.0,0.0,0.0,0.0375,0.0375,0.0375,0.0375,0.0,0.025,0.0375,0.0375,0.0375,0.0375,0.0375,0.0375,0.0
S6_D6 hbo,0.0,0.0,0.008620689655172414,0.0,0.008620689655172414,0.0,0.0,0.0,0.008620689655172414,0.034482758620689655,0.02586206896551724,0.008620689655172414,0.05172413793103448,0.0,0.0,0.0,0.017241379310344827,0.017241379310344827,0.04310344827586207,0.008620689655172414,0.0,0.02586206896551724,0.02586206896551724,0.034482758620689655,0.02586206896551724,0.034482758620689655,0.0,0.0,0.034482758620689655,0.0,0.0,0.0,0.05172413793103448,0.05172413793103448,0.034482758620689655,0.05172413793103448,0.0,0.0,0.0,0.04310344827586207,0.034482758620689655,0.05172413793103448,0.04310344827586207,0.02586206896551724,0.017241379310344827,0.02586206896551724,0.02586206896551724,0.02586206896551724,0.04310344827586207,0.02586206896551724,0.02586206896551724,0.008620689655172414
S6_D8 hbo,0.0,0.0,0.0,0.0,0.017857142857142856,0.0,0.0,0.0,0.0,0.03571428571428571,0.03571428571428571,0.0,0.03571428571428571,0.0,0.0,0.0,0.03571428571428571,0.03571428571428571,0.03571428571428571,0.017857142857142856,0.0,0.03571428571428571,0.03571428571428571,0.03571428571428571,0.03571428571428571,0.03571428571428571,0.0,0.0,0.03571428571428571,0.0,0.0,0.0,0.03571428571428571,0.03571428571428571,0.03571428571428571,0.03571428571428571,0.0,0.0,0.0,0.03571428571428571,0.03571428571428571,0.03571428571428571,0.03571428571428571,0.0,0.03571428571428571,0.03571428571428571,0.03571428571428571,0.03571428571428571,0.03571428571428571,0.03571428571428571,0.03571428571428571,0.0
S7_D5 hbo,0.0,0.0,0.08333333333333333,0.0,0.0,0.08333333333333333,0.08333333333333333,0.0,0.08333333333333333,0.0,0.0,0.0,0.0,0.08333333333333333,0.08333333333333333,0.0,0.0,0.0,0.0,0.0,0.0,0.0,0.0,0.0,0.0,0.0,0.08333333333333333,0.0,0.0,0.0,0.0,0.08333333333333333,0.08333333333333333,0.0,0.0,0.08333333333333333,0.0,0.0,0.0,0.0,0.0,0.0,0.0,0.08333333333333333,0.0,0.0,0.0,0.0,0.0,0.0,0.0,0.08333333333333333
S7_D7 hbo,0.0,0.0,0.0,0.0,0.010416666666666666,0.0,0.0,0.0,0.0,0.041666666666666664,0.03125,0.0,0.041666666666666664,0.0,0.0,0.0,0.020833333333333332,0.020833333333333332,0.041666666666666664,0.010416666666666666,0.0,0.03125,0.03125,0.041666666666666664,0.03125,0.041666666666666664,0.0,0.0,0.041666666666666664,0.0,0.0,0.0,0.041666666666666664,0.041666666666666664,0.041666666666666664,0.041666666666666664,0.0,0.0,0.0,0.041666666666666664,0.041666666666666664,0.041666666666666664,0.041666666666666664,0.010416666666666666,0.020833333333333332,0.03125,0.03125,0.03125,0.041666666666666664,0.03125,0.03125,0.0
S7_D8 hbo,0.0,0.0,0.0,0.0,0.010416666666666666,0.0,0.0,0.0,0.0,0.041666666666666664,0.03125,0.0,0.041666666666666664,0.0,0.0,0.0,0.020833333333333332,0.020833333333333332,0.041666666666666664,0.010416666666666666,0.0,0.03125,0.03125,0.041666666666666664,0.03125,0.041666666666666664,0.0,0.0,0.041666666666666664,0.0,0.0,0.0,0.041666666666666664,0.041666666666666664,0.041666666666666664,0.041666666666666664,0.0,0.0,0.0,0.041666666666666664,0.041666666666666664,0.041666666666666664,0.041666666666666664,0.010416666666666666,0.020833333333333332,0.03125,0.03125,0.03125,0.041666666666666664,0.03125,0.03125,0.0
S8_D6 hbo,0.0,0.0,0.0,0.0,0.009433962264150943,0.0,0.0,0.0,0.0,0.03773584905660377,0.02830188679245283,0.0,0.04716981132075472,0.0,0.0,0.0,0.018867924528301886,0.018867924528301886,0.04716981132075472,0.009433962264150943,0.0,0.02830188679245283,0.02830188679245283,0.03773584905660377,0.02830188679245283,0.03773584905660377,0.0,0.0,0.03773584905660377,0.0,0.0,0.0,0.04716981132075472,0.04716981132075472,0.03773584905660377,0.04716981132075472,0.0,0.0,0.0,0.04716981132075472,0.03773584905660377,0.04716981132075472,0.04716981132075472,0.018867924528301886,0.018867924528301886,0.02830188679245283,0.02830188679245283,0.02830188679245283,0.04716981132075472,0.02830188679245283,0.02830188679245283,0.0
S8_D8 hbo,0.0,0.0,0.0,0.0,0.010416666666666666,0.0,0.0,0.0,0.0,0.041666666666666664,0.03125,0.0,0.041666666666666664,0.0,0.0,0.0,0.020833333333333332,0.020833333333333332,0.041666666666666664,0.010416666666666666,0.0,0.03125,0.03125,0.041666666666666664,0.03125,0.041666666666666664,0.0,0.0,0.041666666666666664,0.0,0.0,0.0,0.041666666666666664,0.041666666666666664,0.041666666666666664,0.041666666666666664,0.0,0.0,0.0,0.041666666666666664,0.041666666666666664,0.041666666666666664,0.041666666666666664,0.010416666666666666,0.020833333333333332,0.03125,0.03125,0.03125,0.041666666666666664,0.03125,0.03125,0.0
S8_D15 hbo,0.0,0.0,0.0,0.0,0.009433962264150943,0.0,0.0,0.0,0.0,0.03773584905660377,0.02830188679245283,0.0,0.04716981132075472,0.0,0.0,0.0,0.018867924528301886,0.018867924528301886,0.04716981132075472,0.009433962264150943,0.0,0.02830188679245283,0.02830188679245283,0.03773584905660377,0.02830188679245283,0.03773584905660377,0.0,0.0,0.03773584905660377,0.0,0.0,0.0,0.04716981132075472,0.04716981132075472,0.03773584905660377,0.04716981132075472,0.0,0.0,0.0,0.04716981132075472,0.03773584905660377,0.04716981132075472,0.04716981132075472,0.018867924528301886,0.018867924528301886,0.02830188679245283,0.02830188679245283,0.02830188679245283,0.04716981132075472,0.02830188679245283,0.02830188679245283,0.0
S9_D2 hbo,0.0,0.0,0.07246376811594203,0.0,0.0,0.050724637681159424,0.10869565217391304,0.0,0.10869565217391304,0.0,0.0,0.0,0.0,0.06521739130434782,0.09420289855072464,0.0,0.0,0.0,0.0,0.0,0.0,0.0,0.0,0.0,0.0,0.0,0.15217391304347827,0.0,0.0,0.0,0.0,0.10144927536231885,0.007246376811594203,0.0,0.0,0.036231884057971016,0.0,0.0,0.0,0.0,0.0,0.0,0.0,0.07971014492753623,0.0,0.0,0.0,0.0,0.0,0.0,0.0,0.12318840579710146
S9_D9 hbo,0.0,0.0,0.0,0.0,0.0,0.0,0.0,0.0,0.0,0.0,0.0,0.0,0.0,0.0,0.0,0.0,0.0,0.0,0.0,0.0,0.0,0.0,0.0,0.0,0.0,0.0,0.0,0.0,0.0,0.0,0.0,0.0,0.0,0.0,0.0,0.0,0.0,0.0,0.0,0.0,0.0,0.0,0.0,0.0,0.0,0.0,0.0,0.0,0.0,0.0,0.0,0.0
S9_D11 hbo,0.0,0.0,0.0,0.0,0.009433962264150943,0.0,0.0,0.0,0.0,0.03773584905660377,0.02830188679245283,0.0,0.04716981132075472,0.0,0.0,0.0,0.018867924528301886,0.018867924528301886,0.04716981132075472,0.009433962264150943,0.0,0.02830188679245283,0.02830188679245283,0.03773584905660377,0.02830188679245283,0.03773584905660377,0.0,0.0,0.03773584905660377,0.0,0.0,0.0,0.04716981132075472,0.04716981132075472,0.03773584905660377,0.04716981132075472,0.0,0.0,0.0,0.04716981132075472,0.03773584905660377,0.04716981132075472,0.04716981132075472,0.018867924528301886,0.018867924528301886,0.02830188679245283,0.02830188679245283,0.02830188679245283,0.04716981132075472,0.02830188679245283,0.02830188679245283,0.0
S10_D9 hbo,0.0,0.0,0.0,0.0,0.0,0.0,0.0,0.0,0.0,0.0,0.0,0.0,0.0,0.0,0.0,0.0,0.0,0.0,0.0,0.0,0.0,0.0,0.0,0.0,0.0,0.0,0.0,0.0,0.0,0.0,0.0,0.0,0.0,0.0,0.0,0.0,0.0,0.0,0.0,0.0,0.0,0.0,0.0,0.0,0.0,0.0,0.0,0.0,0.0,0.0,0.0,0.0
S10_D10 hbo,0.0,0.0,0.0,0.0,0.0,0.0,0.0,0.0,0.0,0.0,0.0,0.0,0.0,0.0,0.0,0.0,0.0,0.0,0.0,0.0,0.0,0.0,0.0,0.0,0.0,0.0,0.0,0.0,0.0,0.0,0.0,0.0,0.0,0.0,0.0,0.0,0.0,0.0,0.0,0.0,0.0,0.0,0.0,0.0,0.0,0.0,0.0,0.0,0.0,0.0,0.0,0.0
S10_D12 hbo,0.0,0.0,0.08227848101265822,0.0,0.0,0.04430379746835443,0.10759493670886076,0.0,0.11392405063291139,0.0,0.0,0.0,0.0,0.06329113924050633,0.0949367088607595,0.0,0.0,0.0,0.0,0.0,0.006329113924050633,0.0,0.0,0.0,0.0,0.0,0.10126582278481013,0.0,0.0,0.0,0.0,0.10759493670886076,0.02531645569620253,0.0,0.0,0.05063291139240506,0.0,0.0,0.0,0.0,0.0,0.0,0.0,0.08860759493670886,0.0,0.0,0.0,0.0,0.0,0.0,0.0,0.11392405063291139
S11_D9 hbo,0.0,0.0,0.03977272727272727,0.0,0.005681818181818182,0.011363636363636364,0.022727272727272728,0.0,0.03977272727272727,0.022727272727272728,0.017045454545454544,0.011363636363636364,0.03409090909090909,0.017045454545454544,0.022727272727272728,0.0,0.011363636363636364,0.011363636363636364,0.028409090909090908,0.005681818181818182,0.005681818181818182,0.017045454545454544,0.017045454545454544,0.022727272727272728,0.017045454545454544,0.022727272727272728,0.017045454545454544,0.0,0.022727272727272728,0.0,0.0,0.03409090909090909,0.0625,0.03409090909090909,0.022727272727272728,0.06818181818181818,0.0,0.0,0.0,0.028409090909090908,0.022727272727272728,0.03977272727272727,0.028409090909090908,0.05113636363636364,0.011363636363636364,0.017045454545454544,0.017045454545454544,0.017045454545454544,0.028409090909090908,0.017045454545454544,0.017045454545454544,0.03977272727272727
S11_D11 hbo,0.0,0.0,0.016,0.0,0.008,0.0,0.0,0.0,0.016,0.032,0.024,0.016,0.048,0.0,0.0,0.0,0.016,0.016,0.04,0.008,0.0,0.024,0.024,0.032,0.024,0.032,0.0,0.0,0.032,0.0,0.0,0.008,0.056,0.048,0.032,0.056,0.0,0.0,0.0,0.04,0.032,0.056,0.04,0.032,0.016,0.024,0.024,0.024,0.04,0.024,0.024,0.016
S11_D12 hbo,0.0,0.0,0.0,0.0,0.009433962264150943,0.0,0.0,0.0,0.0,0.03773584905660377,0.02830188679245283,0.0,0.04716981132075472,0.0,0.0,0.0,0.018867924528301886,0.018867924528301886,0.04716981132075472,0.009433962264150943,0.0,0.02830188679245283,0.02830188679245283,0.03773584905660377,0.02830188679245283,0.03773584905660377,0.0,0.0,0.03773584905660377,0.0,0.0,0.0,0.04716981132075472,0.04716981132075472,0.03773584905660377,0.04716981132075472,0.0,0.0,0.0,0.04716981132075472,0.03773584905660377,0.04716981132075472,0.04716981132075472,0.018867924528301886,0.018867924528301886,0.02830188679245283,0.02830188679245283,0.02830188679245283,0.04716981132075472,0.02830188679245283,0.02830188679245283,0.0
S11_D13 hbo,0.0,0.0,0.0502283105022831,0.0,0.0045662100456621,0.0273972602739726,0.0365296803652968,0.0,0.0502283105022831,0.0182648401826484,0.0136986301369863,0.0091324200913242,0.0273972602739726,0.0319634703196347,0.0365296803652968,0.0,0.0091324200913242,0.0091324200913242,0.0228310502283105,0.0045662100456621,0.0045662100456621,0.0136986301369863,0.0136986301369863,0.0182648401826484,0.0136986301369863,0.0182648401826484,0.0319634703196347,0.0,0.0182648401826484,0.0,0.0,0.045662100456621,0.0502283105022831,0.0273972602739726,0.0182648401826484,0.0684931506849315,0.0,0.0,0.0,0.0228310502283105,0.0182648401826484,0.0319634703196347,0.0228310502283105,0.0593607305936073,0.0091324200913242,0.0136986301369863,0.0136986301369863,0.0136986301369863,0.0228310502283105,0.0136986301369863,0.0136986301369863,0.0502283105022831
S12_D10 hbo,0.0,0.0,0.0,0.0,0.0,0.0,0.0,0.0,0.0,0.0,0.0,0.0,0.0,0.0,0.0,0.0,0.0,0.0,0.0,0.0,0.0,0.0,0.0,0.0,0.0,0.0,0.0,0.0,0.0,0.0,0.0,0.0,0.0,0.0,0.0,0.0,0.0,0.0,0.0,0.0,0.0,0.0,0.0,0.0,0.0,0.0,0.0,0.0,0.0,0.0,0.0,0.0
S12_D12 hbo,0.0,0.0,0.0,0.0,0.0,0.0,0.0,0.0,0.0,0.0,0.0,0.0,0.0,0.0,0.0,0.0,0.0,0.0,0.0,0.0,0.0,0.0,0.0,0.0,0.0,0.0,0.0,0.0,0.0,0.0,0.0,0.0,0.0,0.0,0.0,0.0,0.0,0.0,0.0,0.0,0.0,0.0,0.0,0.0,0.0,0.0,0.0,0.0,0.0,0.0,0.0,0.0
S12_D14 hbo,0.0,0.0,0.0,0.0,0.034482758620689655,0.0,0.0,0.0,0.0,0.034482758620689655,0.034482758620689655,0.0,0.034482758620689655,0.0,0.0,0.0,0.034482758620689655,0.034482758620689655,0.034482758620689655,0.034482758620689655,0.0,0.034482758620689655,0.034482758620689655,0.034482758620689655,0.034482758620689655,0.034482758620689655,0.0,0.0,0.034482758620689655,0.0,0.0,0.0,0.034482758620689655,0.034482758620689655,0.034482758620689655,0.034482758620689655,0.0,0.0,0.0,0.034482758620689655,0.034482758620689655,0.034482758620689655,0.034482758620689655,0.0,0.034482758620689655,0.034482758620689655,0.034482758620689655,0.034482758620689655,0.034482758620689655,0.034482758620689655,0.034482758620689655,0.0
S13_D6 hbo,0.0,0.0,0.008620689655172414,0.0,0.008620689655172414,0.0,0.0,0.0,0.008620689655172414,0.034482758620689655,0.02586206896551724,0.008620689655172414,0.05172413793103448,0.0,0.0,0.0,0.017241379310344827,0.017241379310344827,0.04310344827586207,0.008620689655172414,0.0,0.02586206896551724,0.02586206896551724,0.034482758620689655,0.02586206896551724,0.034482758620689655,0.0,0.0,0.034482758620689655,0.0,0.0,0.0,0.05172413793103448,0.05172413793103448,0.034482758620689655,0.05172413793103448,0.0,0.0,0.0,0.04310344827586207,0.034482758620689655,0.05172413793103448,0.04310344827586207,0.02586206896551724,0.017241379310344827,0.02586206896551724,0.02586206896551724,0.02586206896551724,0.04310344827586207,0.02586206896551724,0.02586206896551724,0.008620689655172414
S13_D11 hbo,0.0,0.0,0.0,0.0,0.009433962264150943,0.0,0.0,0.0,0.0,0.03773584905660377,0.02830188679245283,0.0,0.04716981132075472,0.0,0.0,0.0,0.018867924528301886,0.018867924528301886,0.04716981132075472,0.009433962264150943,0.0,0.02830188679245283,0.02830188679245283,0.03773584905660377,0.02830188679245283,0.03773584905660377,0.0,0.0,0.03773584905660377,0.0,0.0,0.0,0.04716981132075472,0.04716981132075472,0.03773584905660377,0.04716981132075472,0.0,0.0,0.0,0.04716981132075472,0.03773584905660377,0.04716981132075472,0.04716981132075472,0.018867924528301886,0.018867924528301886,0.02830188679245283,0.02830188679245283,0.02830188679245283,0.04716981132075472,0.02830188679245283,0.02830188679245283,0.0
S13_D13 hbo,0.0,0.0,0.022727272727272728,0.0,0.007575757575757576,0.0,0.0,0.0,0.022727272727272728,0.030303030303030304,0.022727272727272728,0.015151515151515152,0.045454545454545456,0.0,0.0,0.0,0.015151515151515152,0.015151515151515152,0.03787878787878788,0.007575757575757576,0.0,0.022727272727272728,0.022727272727272728,0.030303030303030304,0.022727272727272728,0.030303030303030304,0.0,0.0,0.030303030303030304,0.0,0.0,0.015151515151515152,0.06060606060606061,0.045454545454545456,0.030303030303030304,0.06060606060606061,0.0,0.0,0.0,0.03787878787878788,0.030303030303030304,0.05303030303030303,0.03787878787878788,0.03787878787878788,0.015151515151515152,0.022727272727272728,0.022727272727272728,0.022727272727272728,0.03787878787878788,0.022727272727272728,0.022727272727272728,0.022727272727272728
S13_D15 hbo,0.0,0.0,0.008620689655172414,0.0,0.008620689655172414,0.0,0.0,0.0,0.008620689655172414,0.034482758620689655,0.02586206896551724,0.008620689655172414,0.05172413793103448,0.0,0.0,0.0,0.017241379310344827,0.017241379310344827,0.04310344827586207,0.008620689655172414,0.0,0.02586206896551724,0.02586206896551724,0.034482758620689655,0.02586206896551724,0.034482758620689655,0.0,0.0,0.034482758620689655,0.0,0.0,0.0,0.05172413793103448,0.05172413793103448,0.034482758620689655,0.05172413793103448,0.0,0.0,0.0,0.04310344827586207,0.034482758620689655,0.05172413793103448,0.04310344827586207,0.02586206896551724,0.017241379310344827,0.02586206896551724,0.02586206896551724,0.02586206896551724,0.04310344827586207,0.02586206896551724,0.02586206896551724,0.008620689655172414
S14_D12 hbo,0.0,0.0,0.0872093023255814,0.0,0.0,0.040697674418604654,0.08139534883720931,0.0,0.09883720930232558,0.0,0.0,0.011627906976744186,0.011627906976744186,0.05813953488372093,0.08139534883720931,0.0,0.0,0.0,0.005813953488372093,0.0,0.005813953488372093,0.0,0.0,0.0,0.0,0.0,0.0755813953488372,0.0,0.0,0.0,0.0,0.09302325581395349,0.040697674418604654,0.011627906976744186,0.0,0.06395348837209303,0.0,0.0,0.0,0.005813953488372093,0.0,0.01744186046511628,0.005813953488372093,0.09883720930232558,0.0,0.0,0.0,0.0,0.005813953488372093,0.0,0.0,0.09883720930232558
S14_D13 hbo,0.0,0.0,0.0,0.0,0.0125,0.0,0.0,0.0,0.0,0.0375,0.0375,0.0,0.0375,0.0,0.0,0.0,0.025,0.025,0.0375,0.0125,0.0,0.0375,0.0375,0.0375,0.0375,0.0375,0.0,0.0,0.0375,0.0,0.0,0.0,0.0375,0.0375,0.0375,0.0375,0.0,0.0,0.0,0.0375,0.0375,0.0375,0.0375,0.0,0.025,0.0375,0.0375,0.0375,0.0375,0.0375,0.0375,0.0
S14_D14 hbo,0.0,0.0,0.0,0.0,0.010416666666666666,0.0,0.0,0.0,0.0,0.041666666666666664,0.03125,0.0,0.041666666666666664,0.0,0.0,0.0,0.020833333333333332,0.020833333333333332,0.041666666666666664,0.010416666666666666,0.0,0.03125,0.03125,0.041666666666666664,0.03125,0.041666666666666664,0.0,0.0,0.041666666666666664,0.0,0.0,0.0,0.041666666666666664,0.041666666666666664,0.041666666666666664,0.041666666666666664,0.0,0.0,0.0,0.041666666666666664,0.041666666666666664,0.041666666666666664,0.041666666666666664,0.010416666666666666,0.020833333333333332,0.03125,0.03125,0.03125,0.041666666666666664,0.03125,0.03125,0.0
S14_D16 hbo,0.0,0.0,0.0,0.0,0.010416666666666666,0.0,0.0,0.0,0.0,0.041666666666666664,0.03125,0.0,0.041666666666666664,0.0,0.0,0.0,0.020833333333333332,0.020833333333333332,0.041666666666666664,0.010416666666666666,0.0,0.03125,0.03125,0.041666666666666664,0.03125,0.041666666666666664,0.0,0.0,0.041666666666666664,0.0,0.0,0.0,0.041666666666666664,0.041666666666666664,0.041666666666666664,0.041666666666666664,0.0,0.0,0.0,0.041666666666666664,0.041666666666666664,0.041666666666666664,0.041666666666666664,0.010416666666666666,0.020833333333333332,0.03125,0.03125,0.03125,0.041666666666666664,0.03125,0.03125,0.0
S15_D13 hbo,0.0,0.0,0.0,0.0,0.010416666666666666,0.0,0.0,0.0,0.0,0.041666666666666664,0.03125,0.0,0.041666666666666664,0.0,0.0,0.0,0.020833333333333332,0.020833333333333332,0.041666666666666664,0.010416666666666666,0.0,0.03125,0.03125,0.041666666666666664,0.03125,0.041666666666666664,0.0,0.0,0.041666666666666664,0.0,0.0,0.0,0.041666666666666664,0.041666666666666664,0.041666666666666664,0.041666666666666664,0.0,0.0,0.0,0.041666666666666664,0.041666666666666664,0.041666666666666664,0.041666666666666664,0.010416666666666666,0.020833333333333332,0.03125,0.03125,0.03125,0.041666666666666664,0.03125,0.03125,0.0
S15_D15 hbo,0.0,0.0,0.008620689655172414,0.0,0.008620689655172414,0.0,0.0,0.0,0.008620689655172414,0.034482758620689655,0.02586206896551724,0.008620689655172414,0.05172413793103448,0.0,0.0,0.0,0.017241379310344827,0.017241379310344827,0.04310344827586207,0.008620689655172414,0.0,0.02586206896551724,0.02586206896551724,0.034482758620689655,0.02586206896551724,0.034482758620689655,0.0,0.0,0.034482758620689655,0.0,0.0,0.0,0.05172413793103448,0.05172413793103448,0.034482758620689655,0.05172413793103448,0.0,0.0,0.0,0.04310344827586207,0.034482758620689655,0.05172413793103448,0.04310344827586207,0.02586206896551724,0.017241379310344827,0.02586206896551724,0.02586206896551724,0.02586206896551724,0.04310344827586207,0.02586206896551724,0.02586206896551724,0.008620689655172414
S15_D16 hbo,0.0,0.0,0.0,0.0,0.010416666666666666,0.0,0.0,0.0,0.0,0.041666666666666664,0.03125,0.0,0.041666666666666664,0.0,0.0,0.0,0.020833333333333332,0.020833333333333332,0.041666666666666664,0.010416666666666666,0.0,0.03125,0.03125,0.041666666666666664,0.03125,0.041666666666666664,0.0,0.0,0.041666666666666664,0.0,0.0,0.0,0.041666666666666664,0.041666666666666664,0.041666666666666664,0.041666666666666664,0.0,0.0,0.0,0.041666666666666664,0.041666666666666664,0.041666666666666664,0.041666666666666664,0.010416666666666666,0.020833333333333332,0.03125,0.03125,0.03125,0.041666666666666664,0.03125,0.03125,0.0
S16_D14 hbo,0.0,0.0,0.0,0.0,0.010416666666666666,0.0,0.0,0.0,0.0,0.041666666666666664,0.03125,0.0,0.041666666666666664,0.0,0.0,0.0,0.020833333333333332,0.020833333333333332,0.041666666666666664,0.010416666666666666,0.0,0.03125,0.03125,0.041666666666666664,0.03125,0.041666666666666664,0.0,0.0,0.041666666666666664,0.0,0.0,0.0,0.041666666666666664,0.041666666666666664,0.041666666666666664,0.041666666666666664,0.0,0.0,0.0,0.041666666666666664,0.041666666666666664,0.041666666666666664,0.041666666666666664,0.010416666666666666,0.020833333333333332,0.03125,0.03125,0.03125,0.041666666666666664,0.03125,0.03125,0.0
S16_D16 hbo,0.0,0.0,0.08139534883720931,0.0,0.0,0.040697674418604654,0.09883720930232558,0.0,0.11046511627906977,0.0,0.0,0.005813953488372093,0.0,0.05813953488372093,0.0872093023255814,0.0,0.0,0.0,0.0,0.0,0.005813953488372093,0.0,0.0,0.0,0.0,0.0,0.11046511627906977,0.0,0.0,0.0,0.0,0.10465116279069768,0.029069767441860465,0.0,0.0,0.05232558139534884,0.0,0.0,0.0,0.0,0.0,0.005813953488372093,0.0,0.0872093023255814,0.0,0.0,0.0,0.0,0.0,0.0,0.0,0.12209302325581395
