,S1_D1 hbo,S1_D3 hbo,S2_D1 hbo,S2_D2 hbo,S2_D4 hbo,S3_D1 hbo,S3_D3 hbo,S3_D4 hbo,S3_D5 hbo,S4_D2 hbo,S4_D4 hbo,S4_D6 hbo,S4_D11 hbo,S5_D3 hbo,S5_D5 hbo,S5_D7 hbo,S6_D4 hbo,S6_D5 hbo,S6_D6 hbo,S6_D8 hbo,S7_D5 hbo,S7_D7 hbo,S7_D8 hbo,S8_D6 hbo,S8_D8 hbo,S8_D15 hbo,S9_D2 hbo,S9_D9 hbo,S9_D11 hbo,S10_D9 hbo,S10_D10 hbo,S10_D12 hbo,S11_D9 hbo,S11_D11 hbo,S11_D12 hbo,S11_D13 hbo,S12_D10 hbo,S12_D12 hbo,S12_D14 hbo,S13_D6 hbo,S13_D11 hbo,S13_D13 hbo,S13_D15 hbo,S14_D12 hbo,S14_D13 hbo,S14_D14 hbo,S14_D16 hbo,S15_D13 hbo,S15_D15 hbo,S15_D16 hbo,S16_D14 hbo,S16_D16 hbo
S1_D1 hbo,0.09316770186335403,0.043478260869565216,0.0,0.0,0.0,0.06832298136645963,0.09937888198757763,0.0,0.049689440993788817,0.0,0.0,0.0,0.0,0.006211180124223602,0.006211180124223602,0.0,0.09937888198757763,0.0,0.0,0.006211180124223602,0.0,0.0,0.037267080745341616,0.0,0.055900621118012424,0.0,0.062111801242236024,0.08074534161490683,0.062111801242236024,0.0,0.0,0.049689440993788817,0.062111801242236024,0.0,0.0,0.0,0.0,0.0,0.0,0.07453416149068323,0.0,0.012422360248447204,0.0,0.0,0.0,0.0,0.0,0.0,0.0,0.031055900621118012,0.0,0.0
S1_D3 hbo,0.06722689075630252,0.058823529411764705,0.0,0.0,0.0,0.06722689075630252,0.06722689075630252,0.0,0.06722689075630252,0.0,0.0,0.0,0.0,0.008403361344537815,0.008403361344537815,0.0,0.06722689075630252,0.0,0.0,0.008403361344537815,0.0,0.0,0.05042016806722689,0.0,0.06722689075630252,0.0,0.06722689075630252,0.06722689075630252,0.06722689075630252,0.0,0.0,0.06722689075630252,0.06722689075630252,0.0,0.0,0.0,0.0,0.0,0.0,0.06722689075630252,0.0,0.01680672268907563,0.0,0.0,0.0,0.0,0.0,0.0,0.0,0.04201680672268908,0.0,0.0
S2_D1 hbo,0.0,0.0,0.0,0.0,0.0,0.0,0.0,0.0,0.0,0.0,0.0,0.0,0.0,0.0,0.0,0.0,0.0,0.0,0.0,0.0,0.0,0.0,0.0,0.0,0.0,0.0,0.0,0.0,0.0,0.0,0.0,0.0,0.0,0.0,0.0,0.0,0.0,0.0,0.0,0.0,0.0,0.0,0.0,0.0,0.0,0.0,0.0,0.0,0.0,0.0,0.0,0.0
S2_D2 hbo,0.0,0.0,0.0,0.0,0.0,0.0,0.0,0.0,0.0,0.0,0.0,0.0,0.0,0.0,0.0,0.0,0.0,0.0,0.0,0.0,0.0,0.0,0.0,0.0,0.0,0.0,0.0,0.0,0.0,0.0,0.0,0.0,0.0,0.0,0.0,0.0,0.0,0.0,0.0,0.0,0.0,0.0,0.0,0.0,0.0,0.0,0.0,0.0,0.0,0.0,0.0,0.0
S2_D4 hbo,0.0,0.0,0.0,0.0,0.0,0.0,0.0,0.0,0.0,0.0,0.0,0.0,0.0,0.0,0.0,0.0,0.0,0.0,0.0,0.0,0.0,0.0,0.0,0.0,0.0,0.0,0.0,0.0,0.0,0.0,0.0,0.0,0.0,0.0,0.0,0.0,0.0,0.0,0.0,0.0,0.0,0.0,0.0,0.0,0.0,0.0,0.0,0.0,0.0,0.0,0.0,0.0
S3_D1 hbo,0.08053691275167785,0.04697986577181208,0.0,0.0,0.0,0.0738255033557047,0.08053691275167785,0.0,0.053691275167785234,0.0,0.0,0.0,0.0,0.006711409395973154,0.006711409395973154,0.0,0.08053691275167785,0.0,0.0,0.006711409395973154,0.0,0.0,0.040268456375838924,0.0,0.06040268456375839,0.0,0.06711409395973154,0.08053691275167785,0.06711409395973154,0.0,0.0,0.053691275167785234,0.06711409395973154,0.0,0.0,0.0,0.0,0.0,0.0,0.08053691275167785,0.0,0.013422818791946308,0.0,0.0,0.0,0.0,0.0,0.0,0.0,0.03355704697986577,0.0,0.0
S3_D3 hbo,0.09202453987730061,0.04294478527607362,0.0,0.0,0.0,0.06748466257668712,0.11042944785276074,0.0,0.049079754601226995,0.0,0.0,0.0,0.0,0.006134969325153374,0.006134969325153374,0.0,0.09815950920245399,0.0,0.0,0.006134969325153374,0.0,0.0,0.03680981595092025,0.0,0.05521472392638037,0.0,0.06134969325153374,0.07975460122699386,0.06134969325153374,0.0,0.0,0.049079754601226995,0.06134969325153374,0.0,0.0,0.0,0.0,0.0,0.0,0.0736196319018405,0.0,0.012269938650306749,0.0,0.0,0.0,0.0,0.0,0.0,0.0,0.03067484662576687,0.0,0.0
S3_D4 hbo,0.0,0.0,0.0,0.0,0.0,0.0,0.0,0.0,0.0,0.0,0.0,0.0,0.0,0.0,0.0,0.0,0.0,0.0,0.0,0.0,0.0,0.0,0.0,0.0,0.0,0.0,0.0,0.0,0.0,0.0,0.0,0.0,0.0,0.0,0.0,0.0,0.0,0.0,0.0,0.0,0.0,0.0,0.0,0.0,0.0,0.0,0.0,0.0,0.0,0.0,0.0,0.0
S3_D5 hbo,0.06976744186046512,0.05426356589147287,0.0,0.0,0.0,0.06976744186046512,0.06976744186046512,0.0,0.06201550387596899,0.0,0.0,0.0,0.0,0.007751937984496124,0.007751937984496124,0.0,0.06976744186046512,0.0,0.0,0.007751937984496124,0.0,0.0,0.046511627906976744,0.0,0.06976744186046512,0.0,0.06976744186046512,0.06976744186046512,0.06976744186046512,0.0,0.0,0.06201550387596899,0.06976744186046512,0.0,0.0,0.0,0.0,0.0,0.0,0.06976744186046512,0.0,0.015503875968992248,0.0,0.0,0.0,0.0,0.0,0.0,0.0,0.03875968992248062,0.0,0.0
S4_D2 hbo,0.0,0.0,0.0,0.0,0.0,0.0,0.0,0.0,0.0,0.0,0.0,0.0,0.0,0.0,0.0,0.0,0.0,0.0,0.0,0.0,0.0,0.0,0.0,0.0,0.0,0.0,0.0,0.0,0.0,0.0,0.0,0.0,0.0,0.0,0.0,0.0,0.0,0.0,0.0,0.0,0.0,0.0,0.0,0.0,0.0,0.0,0.0,0.0,0.0,0.0,0.0,0.0
S4_D4 hbo,0.0,0.0,0.0,0.0,0.0,0.0,0.0,0.0,0.0,0.0,0.0,0.0,0.0,0.0,0.0,0.0,0.0,0.0,0.0,0.0,0.0,0.0,0.0,0.0,0.0,0.0,0.0,0.0,0.0,0.0,0.0,0.0,0.0,0.0,0.0,0.0,0.0,0.0,0.0,0.0,0.0,0.0,0.0,0.0,0.0,0.0,0.0,0.0,0.0,0.0,0.0,0.0
S4_D6 hbo,0.0,0.0,0.0,0.0,0.0,0.0,0.0,0.0,0.0,0.0,0.0,0.0,0.0,0.0,0.0,0.0,0.0,0.0,0.0,0.0,0.0,0.0,0.0,0.0,0.0,0.0,0.0,0.0,0.0,0.0,0.0,0.0,0.0,0.0,0.0,0.0,0.0,0.0,0.0,0.0,0.0,0.0,0.0,0.0,0.0,0.0,0.0,0.0,0.0,0.0,0.0,0.0
S4_D11 hbo,0.0,0.0,0.0,0.0,0.0,0.0,0.0,0.0,0.0,0.0,0.0,0.0,0.0,0.0,0.0,0.0,0.0,0.0,0.0,0.0,0.0,0.0,0.0,0.0,0.0,0.0,0.0,0.0,0.0,0.0,0.0,0.0,0.0,0.0,0.0,0.0,0.0,0.0,0.0,0.0,0.0,0.0,0.0,0.0,0.0,0.0,0.0,0.0,0.0,0.0,0.0,0.0
S5_D3 hbo,0.05714285714285714,0.05714285714285714,0.0,0.0,0.0,0.05714285714285714,0.05714285714285714,0.0,0.05714285714285714,0.0,0.0,0.0,0.0,0.02857142857142857,0.02857142857142857,0.0,0.05714285714285714,0.0,0.0,0.02857142857142857,0.0,0.0,0.05714285714285714,0.0,0.05714285714285714,0.0,0.05714285714285714,0.05714285714285714,0.05714285714285714,0.0,0.0,0.05714285714285714,0.05714285714285714,0.0,0.0,0.0,0.0,0.0,0.0,0.05714285714285714,0.0,0.05714285714285714,0.0,0.0,0.0,0.0,0.0,0.0,0.0,0.05714285714285714,0.0,0.0
S5_D5 hbo,0.05714285714285714,0.05714285714285714,0.0,0.0,0.0,0.05714285714285714,0.05714285714285714,0.0,0.05714285714285714,0.0,0.0,0.0,0.0,0.02857142857142857,0.02857142857142857,0.0,0.05714285714285714,0.0,0.0,0.02857142857142857,0.0,0.0,0.05714285714285714,0.0,0.05714285714285714,0.0,0.05714285714285714,0.05714285714285714,0.05714285714285714,0.0,0.0,0.05714285714285714,0.05714285714285714,0.0,0.0,0.0,0.0,0.0,0.0,0.05714285714285714,0.0,0.05714285714285714,0.0,0.0,0.0,0.0,0.0,0.0,0.0,0.05714285714285714,0.0,0.0
S5_D7 hbo,0.0,0.0,0.0,0.0,0.0,0.0,0.0,0.0,0.0,0.0,0.0,0.0,0.0,0.0,0.0,0.0,0.0,0.0,0.0,0.0,0.0,0.0,0.0,0.0,0.0,0.0,0.0,0.0,0.0,0.0,0.0,0.0,0.0,0.0,0.0,0.0,0.0,0.0,0.0,0.0,0.0,0.0,0.0,0.0,0.0,0.0,0.0,0.0,0.0,0.0,0.0,0.0
S6_D4 hbo,0.09259259259259259,0.043209876543209874,0.0,0.0,0.0,0.06790123456790123,0.10493827160493827,0.0,0.04938271604938271,0.0,0.0,0.0,0.0,0.006172839506172839,0.006172839506172839,0.0,0.09876543209876543,0.0,0.0,0.006172839506172839,0.0,0.0,0.037037037037037035,0.0,0.05555555555555555,0.0,0.06172839506172839,0.08024691358024691,0.06172839506172839,0.0,0.0,0.04938271604938271,0.06172839506172839,0.0,0.0,0.0,0.0,0.0,0.0,0.07407407407407407,0.0,0.012345679012345678,0.0,0.0,0.0,0.0,0.0,0.0,0.0,0.030864197530864196,0.0,0.0
S6_D5 hbo,0.0,0.0,0.0,0.0,0.0,0.0,0.0,0.0,0.0,0.0,0.0,0.0,0.0,0.0,0.0,0.0,0.0,0.0,0.0,0.0,0.0,0.0,0.0,0.0,0.0,0.0,0.0,0.0,0.0,0.0,0.0,0.0,0.0,0.0,0.0,0.0,0.0,0.0,0.0,0.0,0.0,0.0,0.0,0.0,0.0,0.0,0.0,0.0,0.0,0.0,0.0,0.0
S6_D6 hbo,0.0,0.0,0.0,0.0,0.0,0.0,0.0,0.0,0.0,0.0,0.0,0.0,0.0,0.0,0.0,0.0,0.0,0.0,0.0,0.0,0.0,0.0,0.0,0.0,0.0,0.0,0.0,0.0,0.0,0.0,0.0,0.0,0.0,0.0,0.0,0.0,0.0,0.0,0.0,0.0,0.0,0.0,0.0,0.0,0.0,0.0,0.0,0.0,0.0,0.0,0.0,0.0
S6_D8 hbo,0.05714285714285714,0.05714285714285714,0.0,0.0,0.0,0.05714285714285714,0.05714285714285714,0.0,0.05714285714285714,0.0,0.0,0.0,0.0,0.02857142857142857,0.02857142857142857,0.0,0.05714285714285714,0.0,0.0,0.02857142857142857,0.0,0.0,0.05714285714285714,0.0,0.05714285714285714,0.0,0.05714285714285714,0.05714285714285714,0.05714285714285714,0.0,0.0,0.05714285714285714,0.05714285714285714,0.0,0.0,0.0,0.0,0.0,0.0,0.05714285714285714,0.0,0.05714285714285714,0.0,0.0,0.0,0.0,0.0,0.0,0.0,0.05714285714285714,0.0,0.0
S7_D5 hbo,0.0,0.0,0.0,0.0,0.0,0.0,0.0,0.0,0.0,0.0,0.0,0.0,0.0,0.0,0.0,0.0,0.0,0.0,0.0,0.0,0.0,0.0,0.0,0.0,0.0,0.0,0.0,0.0,0.0,0.0,0.0,0.0,0.0,0.0,0.0,0.0,0.0,0.0,0.0,0.0,0.0,0.0,0.0,0.0,0.0,0.0,0.0,0.0,0.0,0.0,0.0,0.0
S7_D7 hbo,0.0,0.0,0.0,0.0,0.0,0.0,0.0,0.0,0.0,0.0,0.0,0.0,0.0,0.0,0.0,0.0,0.0,0.0,0.0,0.0,0.0,0.0,0.0,0.0,0.0,0.0,0.0,0.0,0.0,0.0,0.0,0.0,0.0,0.0,0.0,0.0,0.0,0.0,0.0,0.0,0.0,0.0,0.0,0.0,0.0,0.0,0.0,0.0,0.0,0.0,0.0,0.0
S7_D8 hbo,0.06542056074766354,0.06542056074766354,0.0,0.0,0.0,0.06542056074766354,0.06542056074766354,0.0,0.06542056074766354,0.0,0.0,0.0,0.0,0.009345794392523364,0.009345794392523364,0.0,0.06542056074766354,0.0,0.0,0.009345794392523364,0.0,0.0,0.056074766355140186,0.0,0.06542056074766354,0.0,0.06542056074766354,0.06542056074766354,0.06542056074766354,0.0,0.0,0.06542056074766354,0.06542056074766354,0.0,0.0,0.0,0.0,0.0,0.0,0.06542056074766354,0.0,0.018691588785046728,0.0,0.0,0.0,0.0,0.0,0.0,0.0,0.04672897196261682,0.0,0.0
S8_D6 hbo,0.0,0.0,0.0,0.0,0.0,0.0,0.0,0.0,0.0,0.0,0.0,0.0,0.0,0.0,0.0,0.0,0.0,0.0,0.0,0.0,0.0,0.0,0.0,0.0,0.0,0.0,0.0,0.0,0.0,0.0,0.0,0.0,0.0,0.0,0.0,0.0,0.0,0.0,0.0,0.0,0.0,0.0,0.0,0.0,0.0,0.0,0.0,0.0,0.0,0.0,0.0,0.0
S8_D8 hbo,0.07246376811594203,0.050724637681159424,0.0,0.0,0.0,0.07246376811594203,0.07246376811594203,0.0,0.057971014492753624,0.0,0.0,0.0,0.0,0.007246376811594203,0.007246376811594203,0.0,0.07246376811594203,0.0,0.0,0.007246376811594203,0.0,0.0,0.043478260869565216,0.0,0.06521739130434782,0.0,0.07246376811594203,0.07246376811594203,0.07246376811594203,0.0,0.0,0.057971014492753624,0.07246376811594203,0.0,0.0,0.0,0.0,0.0,0.0,0.07246376811594203,0.0,0.014492753623188406,0.0,0.0,0.0,0.0,0.0,0.0,0.0,0.036231884057971016,0.0,0.0
S8_D15 hbo,0.0,0.0,0.0,0.0,0.0,0.0,0.0,0.0,0.0,0.0,0.0,0.0,0.0,0.0,0.0,0.0,0.0,0.0,0.0,0.0,0.0,0.0,0.0,0.0,0.0,0.0,0.0,0.0,0.0,0.0,0.0,0.0,0.0,0.0,0.0,0.0,0.0,0.0,0.0,0.0,0.0,0.0,0.0,0.0,0.0,0.0,0.0,0.0,0.0,0.0,0.0,0.0
S9_D2 hbo,0.0763888888888889,0.04861111111111111,0.0,0.0,0.0,0.0763888888888889,0.0763888888888889,0.0,0.05555555555555555,0.0,0.0,0.0,0.0,0.006944444444444444,0.006944444444444444,0.0,0.0763888888888889,0.0,0.0,0.006944444444444444,0.0,0.0,0.041666666666666664,0.0,0.0625,0.0,0.06944444444444445,0.0763888888888889,0.06944444444444445,0.0,0.0,0.05555555555555555,0.06944444444444445,0.0,0.0,0.0,0.0,0.0,0.0,0.0763888888888889,0.0,0.013888888888888888,0.0,0.0,0.0,0.0,0.0,0.0,0.0,0.034722222222222224,0.0,0.0
S9_D9 hbo,0.0948905109489051,0.043795620437956206,0.0,0.0,0.0,0.072992700729927,0.0948905109489051,0.0,0.051094890510948905,0.0,0.0,0.0,0.0,0.0,0.0,0.0,0.0948905109489051,0.0,0.0,0.0,0.0,0.0,0.0364963503649635,0.0,0.058394160583941604,0.0,0.06569343065693431,0.08759124087591241,0.06569343065693431,0.0,0.0,0.051094890510948905,0.06569343065693431,0.0,0.0,0.0,0.0,0.0,0.0,0.08029197080291971,0.0,0.0072992700729927005,0.0,0.0,0.0,0.0,0.0,0.0,0.0,0.029197080291970802,0.0,0.0
S9_D11 hbo,0.0763888888888889,0.04861111111111111,0.0,0.0,0.0,0.0763888888888889,0.0763888888888889,0.0,0.05555555555555555,0.0,0.0,0.0,0.0,0.006944444444444444,0.006944444444444444,0.0,0.0763888888888889,0.0,0.0,0.006944444444444444,0.0,0.0,0.041666666666666664,0.0,0.0625,0.0,0.06944444444444445,0.0763888888888889,0.06944444444444445,0.0,0.0,0.05555555555555555,0.06944444444444445,0.0,0.0,0.0,0.0,0.0,0.0,0.0763888888888889,0.0,0.013888888888888888,0.0,0.0,0.0,0.0,0.0,0.0,0.0,0.034722222222222224,0.0,0.0
S10_D9 hbo,0.0,0.0,0.0,0.0,0.0,0.0,0.0,0.0,0.0,0.0,0.0,0.0,0.0,0.0,0.0,0.0,0.0,0.0,0.0,0.0,0.0,0.0,0.0,0.0,0.0,0.0,0.0,0.0,0.0,0.0,0.0,0.0,0.0,0.0,0.0,0.0,0.0,0.0,0.0,0.0,0.0,0.0,0.0,0.0,0.0,0.0,0.0,0.0,0.0,0.0,0.0,0.0
S10_D10 hbo,0.0,0.0,0.0,0.0,0.0,0.0,0.0,0.0,0.0,0.0,0.0,0.0,0.0,0.0,0.0,0.0,0.0,0.0,0.0,0.0,0.0,0.0,0.0,0.0,0.0,0.0,0.0,0.0,0.0,0.0,0.0,0.0,0.0,0.0,0.0,0.0,0.0,0.0,0.0,0.0,0.0,0.0,0.0,0.0,0.0,0.0,0.0,0.0,0.0,0.0,0.0,0.0
S10_D12 hbo,0.06976744186046512,0.05426356589147287,0.0,0.0,0.0,0.06976744186046512,0.06976744186046512,0.0,0.06201550387596899,0.0,0.0,0.0,0.0,0.007751937984496124,0.007751937984496124,0.0,0.06976744186046512,0.0,0.0,0.007751937984496124,0.0,0.0,0.046511627906976744,0.0,0.06976744186046512,0.0,0.06976744186046512,0.06976744186046512,0.06976744186046512,0.0,0.0,0.06201550387596899,0.06976744186046512,0.0,0.0,0.0,0.0,0.0,0.0,0.06976744186046512,0.0,0.015503875968992248,0.0,0.0,0.0,0.0,0.0,0.0,0.0,0.03875968992248062,0.0,0.0
S11_D9 hbo,0.0763888888888889,0.04861111111111111,0.0,0.0,0.0,0.0763888888888889,0.0763888888888889,0.0,0.05555555555555555,0.0,0.0,0.0,0.0,0.006944444444444444,0.006944444444444444,0.0,0.0763888888888889,0.0,0.0,0.006944444444444444,0.0,0.0,0.041666666666666664,0.0,0.0625,0.0,0.06944444444444445,0.0763888888888889,0.06944444444444445,0.0,0.0,0.05555555555555555,0.06944444444444445,0.0,0.0,0.0,0.0,0.0,0.0,0.0763888888888889,0.0,0.013888888888888888,0.0,0.0,0.0,0.0,0.0,0.0,0.0,0.034722222222222224,0.0,0.0
S11_D11 hbo,0.0,0.0,0.0,0.0,0.0,0.0,0.0,0.0,0.0,0.0,0.0,0.0,0.0,0.0,0.0,0.0,0.0,0.0,0.0,0.0,0.0,0.0,0.0,0.0,0.0,0.0,0.0,0.0,0.0,0.0,0.0,0.0,0.0,0.0,0.0,0.0,0.0,0.0,0.0,0.0,0.0,0.0,0.0,0.0,0.0,0.0,0.0,0.0,0.0,0.0,0.0,0.0
S11_D12 hbo,0.0,0.0,0.0,0.0,0.0,0.0,0.0,0.0,0.0,0.0,0.0,0.0,0.0,0.0,0.0,0.0,0.0,0.0,0.0,0.0,0.0,0.0,0.0,0.0,0.0,0.0,0.0,0.0,0.0,0.0,0.0,0.0,0.0,0.0,0.0,0.0,0.0,0.0,0.0,0.0,0.0,0.0,0.0,0.0,0.0,0.0,0.0,0.0,0.0,0.0,0.0,0.0
S11_D13 hbo,0.05263157894736842,0.05263157894736842,0.0,0.0,0.0,0.05263157894736842,0.05263157894736842,0.0,0.05263157894736842,0.0,0.0,0.0,0.0,0.05263157894736842,0.05263157894736842,0.0,0.05263157894736842,0.0,0.0,0.05263157894736842,0.0,0.0,0.05263157894736842,0.0,0.05263157894736842,0.0,0.05263157894736842,0.05263157894736842,0.05263157894736842,0.0,0.0,0.05263157894736842,0.05263157894736842,0.0,0.0,0.0,0.0,0.0,0.0,0.05263157894736842,0.0,0.05263157894736842,0.0,0.0,0.0,0.0,0.0,0.0,0.0,0.05263157894736842,0.0,0.0
S12_D10 hbo,0.0,0.0,0.0,0.0,0.0,0.0,0.0,0.0,0.0,0.0,0.0,0.0,0.0,0.0,0.0,0.0,0.0,0.0,0.0,0.0,0.0,0.0,0.0,0.0,0.0,0.0,0.0,0.0,0.0,0.0,0.0,0.0,0.0,0.0,0.0,0.0,0.0,0.0,0.0,0.0,0.0,0.0,0.0,0.0,0.0,0.0,0.0,0.0,0.0,0.0,0.0,0.0
S12_D12 hbo,0.0,0.0,0.0,0.0,0.0,0.0,0.0,0.0,0.0,0.0,0.0,0.0,0.0,0.0,0.0,0.0,0.0,0.0,0.0,0.0,0.0,0.0,0.0,0.0,0.0,0.0,0.0,0.0,0.0,0.0,0.0,0.0,0.0,0.0,0.0,0.0,0.0,0.0,0.0,0.0,0.0,0.0,0.0,0.0,0.0,0.0,0.0,0.0,0.0,0.0,0.0,0.0
S12_D14 hbo,0.0,0.0,0.0,0.0,0.0,0.0,0.0,0.0,0.0,0.0,0.0,0.0,0.0,0.0,0.0,0.0,0.0,0.0,0.0,0.0,0.0,0.0,0.0,0.0,0.0,0.0,0.0,0.0,0.0,0.0,0.0,0.0,0.0,0.0,0.0,0.0,0.0,0.0,0.0,0.0,0.0,0.0,0.0,0.0,0.0,0.0,0.0,0.0,0.0,0.0,0.0,0.0
S13_D6 hbo,0.08496732026143791,0.0457516339869281,0.0,0.0,0.0,0.0718954248366013,0.08496732026143791,0.0,0.05228758169934641,0.0,0.0,0.0,0.0,0.006535947712418301,0.006535947712418301,0.0,0.08496732026143791,0.0,0.0,0.006535947712418301,0.0,0.0,0.0392156862745098,0.0,0.058823529411764705,0.0,0.06535947712418301,0.08496732026143791,0.06535947712418301,0.0,0.0,0.05228758169934641,0.06535947712418301,0.0,0.0,0.0,0.0,0.0,0.0,0.0784313725490196,0.0,0.013071895424836602,0.0,0.0,0.0,0.0,0.0,0.0,0.0,0.032679738562091505,0.0,0.0
S13_D11 hbo,0.0,0.0,0.0,0.0,0.0,0.0,0.0,0.0,0.0,0.0,0.0,0.0,0.0,0.0,0.0,0.0,0.0,0.0,0.0,0.0,0.0,0.0,0.0,0.0,0.0,0.0,0.0,0.0,0.0,0.0,0.0,0.0,0.0,0.0,0.0,0.0,0.0,0.0,0.0,0.0,0.0,0.0,0.0,0.0,0.0,0.0,0.0,0.0,0.0,0.0,0.0,0.0
S13_D13 hbo,0.06,0.06,0.0,0.0,0.0,0.06,0.06,0.0,0.06,0.0,0.0,0.0,0.0,0.02,0.02,0.0,0.06,0.0,0.0,0.02,0.0,0.0,0.06,0.0,0.06,0.0,0.06,0.06,0.06,0.0,0.0,0.06,0.06,0.0,0.0,0.0,0.0,0.0,0.0,0.06,0.0,0.04,0.0,0.0,0.0,0.0,0.0,0.0,0.0,0.06,0.0,0.0
S13_D15 hbo,0.0,0.0,0.0,0.0,0.0,0.0,0.0,0.0,0.0,0.0,0.0,0.0,0.0,0.0,0.0,0.0,0.0,0.0,0.0,0.0,0.0,0.0,0.0,0.0,0.0,0.0,0.0,0.0,0.0,0.0,0.0,0.0,0.0,0.0,0.0,0.0,0.0,0.0,0.0,0.0,0.0,0.0,0.0,0.0,0.0,0.0,0.0,0.0,0.0,0.0,0.0,0.0
S14_D12 hbo,0.0,0.0,0.0,0.0,0.0,0.0,0.0,0.0,0.0,0.0,0.0,0.0,0.0,0.0,0.0,0.0,0.0,0.0,0.0,0.0,0.0,0.0,0.0,0.0,0.0,0.0,0.0,0.0,0.0,0.0,0.0,0.0,0.0,0.0,0.0,0.0,0.0,0.0,0.0,0.0,0.0,0.0,0.0,0.0,0.0,0.0,0.0,0.0,0.0,0.0,0.0,0.0
S14_D13 hbo,0.0,0.0,0.0,0.0,0.0,0.0,0.0,0.0,0.0,0.0,0.0,0.0,0.0,0.0,0.0,0.0,0.0,0.0,0.0,0.0,0.0,0.0,0.0,0.0,0.0,0.0,0.0,0.0,0.0,0.0,0.0,0.0,0.0,0.0,0.0,0.0,0.0,0.0,0.0,0.0,0.0,0.0,0.0,0.0,0.0,0.0,0.0,0.0,0.0,0.0,0.0,0.0
S14_D14 hbo,0.0,0.0,0.0,0.0,0.0,0.0,0.0,0.0,0.0,0.0,0.0,0.0,0.0,0.0,0.0,0.0,0.0,0.0,0.0,0.0,0.0,0.0,0.0,0.0,0.0,0.0,0.0,0.0,0.0,0.0,0.0,0.0,0.0,0.0,0.0,0.0,0.0,0.0,0.0,0.0,0.0,0.0,0.0,0.0,0.0,0.0,0.0,0.0,0.0,0.0,0.0,0.0
S14_D16 hbo,0.0,0.0,0.0,0.0,0.0,0.0,0.0,0.0,0.0,0.0,0.0,0.0,0.0,0.0,0.0,0.0,0.0,0.0,0.0,0.0,0.0,0.0,0.0,0.0,0.0,0.0,0.0,0.0,0.0,0.0,0.0,0.0,0.0,0.0,0.0,0.0,0.0,0.0,0.0,0.0,0.0,0.0,0.0,0.0,0.0,0.0,0.0,0.0,0.0,0.0,0.0,0.0
S15_D13 hbo,0.0,0.0,0.0,0.0,0.0,0.0,0.0,0.0,0.0,0.0,0.0,0.0,0.0,0.0,0.0,0.0,0.0,0.0,0.0,0.0,0.0,0.0,0.0,0.0,0.0,0.0,0.0,0.0,0.0,0.0,0.0,0.0,0.0,0.0,0.0,0.0,0.0,0.0,0.0,0.0,0.0,0.0,0.0,0.0,0.0,0.0,0.0,0.0,0.0,0.0,0.0,0.0
S15_D15 hbo,0.0,0.0,0.0,0.0,0.0,0.0,0.0,0.0,0.0,0.0,0.0,0.0,0.0,0.0,0.0,0.0,0.0,0.0,0.0,0.0,0.0,0.0,0.0,0.0,0.0,0.0,0.0,0.0,0.0,0.0,0.0,0.0,0.0,0.0,0.0,0.0,0.0,0.0,0.0,0.0,0.0,0.0,0.0,0.0,0.0,0.0,0.0,0.0,0.0,0.0,0.0,0.0
S15_D16 hbo,0.06382978723404255,0.06382978723404255,0.0,0.0,0.0,0.06382978723404255,0.06382978723404255,0.0,0.06382978723404255,0.0,0.0,0.0,0.0,0.010638297872340425,0.010638297872340425,0.0,0.06382978723404255,0.0,0.0,0.010638297872340425,0.0,0.0,0.06382978723404255,0.0,0.06382978723404255,0.0,0.06382978723404255,0.06382978723404255,0.06382978723404255,0.0,0.0,0.06382978723404255,0.06382978723404255,0.0,0.0,0.0,0.0,0.0,0.0,0.06382978723404255,0.0,0.02127659574468085,0.0,0.0,0.0,0.0,0.0,0.0,0.0,0.05319148936170213,0.0,0.0
S16_D14 hbo,0.0,0.0,0.0,0.0,0.0,0.0,0.0,0.0,0.0,0.0,0.0,0.0,0.0,0.0,0.0,0.0,0.0,0.0,0.0,0.0,0.0,0.0,0.0,0.0,0.0,0.0,0.0,0.0,0.0,0.0,0.0,0.0,0.0,0.0,0.0,0.0,0.0,0.0,0.0,0.0,0.0,0.0,0.0,0.0,0.0,0.0,0.0,0.0,0.0,0.0,0.0,0.0
S16_D16 hbo,0.0,0.0,0.0,0.0,0.0,0.0,0.0,0.0,0.0,0.0,0.0,0.0,0.0,0.0,0.0,0.0,0.0,0.0,0.0,0.0,0.0,0.0,0.0,0.0,0.0,0.0,0.0,0.0,0.0,0.0,0.0,0.0,0.0,0.0,0.0,0.0,0.0,0.0,0.0,0.0,0.0,0.0,0.0,0.0,0.0,0.0,0.0,0.0,0.0,0.0,0.0,0.0
