,S1_D1 hbo,S1_D3 hbo,S2_D1 hbo,S2_D2 hbo,S2_D4 hbo,S3_D1 hbo,S3_D3 hbo,S3_D4 hbo,S3_D5 hbo,S4_D2 hbo,S4_D4 hbo,S4_D6 hbo,S4_D11 hbo,S5_D3 hbo,S5_D5 hbo,S5_D7 hbo,S6_D4 hbo,S6_D5 hbo,S6_D6 hbo,S6_D8 hbo,S7_D5 hbo,S7_D7 hbo,S7_D8 hbo,S8_D6 hbo,S8_D8 hbo,S8_D15 hbo,S9_D2 hbo,S9_D9 hbo,S9_D11 hbo,S10_D9 hbo,S10_D10 hbo,S10_D12 hbo,S11_D9 hbo,S11_D11 hbo,S11_D12 hbo,S11_D13 hbo,S12_D10 hbo,S12_D12 hbo,S12_D14 hbo,S13_D6 hbo,S13_D11 hbo,S13_D13 hbo,S13_D15 hbo,S14_D12 hbo,S14_D13 hbo,S14_D14 hbo,S14_D16 hbo,S15_D13 hbo,S15_D15 hbo,S15_D16 hbo,S16_D14 hbo,S16_D16 hbo
S1_D1 hbo,0.0,0.0,0.0,0.0,0.0,0.0,0.0,0.0,0.0,0.0,0.0,0.0,0.0,0.0,0.0,0.0,0.0,0.0,0.0,0.0,0.0,0.0,0.0,0.0,0.0,0.0,0.0,0.0,0.0,0.0,0.0,0.0,0.0,0.0,0.0,0.0,0.0,0.0,0.0,0.0,0.0,0.0,0.0,0.0,0.0,0.0,0.0,0.0,0.0,0.0,0.0,0.0
S1_D3 hbo,0.0,0.0,0.0,0.0,0.0,0.0,0.0,0.0,0.0,0.0,0.0,0.0,0.0,0.0,0.0,0.0,0.0,0.0,0.0,0.0,0.0,0.0,0.0,0.0,0.0,0.0,0.0,0.0,0.0,0.0,0.0,0.0,0.0,0.0,0.0,0.0,0.0,0.0,0.0,0.0,0.0,0.0,0.0,0.0,0.0,0.0,0.0,0.0,0.0,0.0,0.0,0.0
S2_D1 hbo,0.0,0.0,0.0,0.025,0.0,0.025,0.025,0.0,0.025,0.025,0.025,0.025,0.025,0.025,0.025,0.025,0.025,0.025,0.0,0.025,0.025,0.025,0.025,0.025,0.025,0.025,0.025,0.025,0.025,0.0,0.0,0.025,0.025,0.025,0.025,0.025,0.0,0.0,0.0,0.025,0.025,0.0,0.025,0.025,0.025,0.025,0.025,0.025,0.025,0.025,0.025,0.025
S2_D2 hbo,0.0,0.0,0.003289473684210526,0.023026315789473683,0.0,0.02631578947368421,0.02631578947368421,0.0,0.02631578947368421,0.02631578947368421,0.019736842105263157,0.02631578947368421,0.02631578947368421,0.01644736842105263,0.02631578947368421,0.013157894736842105,0.023026315789473683,0.02631578947368421,0.009868421052631578,0.01644736842105263,0.02631578947368421,0.02631578947368421,0.02631578947368421,0.02631578947368421,0.023026315789473683,0.02631578947368421,0.02631578947368421,0.023026315789473683,0.02631578947368421,0.0,0.0,0.019736842105263157,0.02631578947368421,0.023026315789473683,0.023026315789473683,0.02631578947368421,0.0,0.0,0.006578947368421052,0.02631578947368421,0.02631578947368421,0.009868421052631578,0.02631578947368421,0.02631578947368421,0.02631578947368421,0.023026315789473683,0.02631578947368421,0.023026315789473683,0.02631578947368421,0.02631578947368421,0.023026315789473683,0.019736842105263157
S2_D4 hbo,0.0,0.0,0.0,0.0,0.0,0.0,0.0,0.0,0.0,0.0,0.0,0.0,0.0,0.0,0.0,0.0,0.0,0.0,0.0,0.0,0.0,0.0,0.0,0.0,0.0,0.0,0.0,0.0,0.0,0.0,0.0,0.0,0.0,0.0,0.0,0.0,0.0,0.0,0.0,0.0,0.0,0.0,0.0,0.0,0.0,0.0,0.0,0.0,0.0,0.0,0.0,0.0
S3_D1 hbo,0.0,0.0,0.0031545741324921135,0.022082018927444796,0.0,0.025236593059936908,0.025236593059936908,0.0,0.025236593059936908,0.028391167192429023,0.022082018927444796,0.025236593059936908,0.028391167192429023,0.015772870662460567,0.025236593059936908,0.012618296529968454,0.022082018927444796,0.025236593059936908,0.012618296529968454,0.015772870662460567,0.028391167192429023,0.025236593059936908,0.028391167192429023,0.025236593059936908,0.022082018927444796,0.028391167192429023,0.028391167192429023,0.022082018927444796,0.025236593059936908,0.0,0.0,0.01892744479495268,0.025236593059936908,0.022082018927444796,0.022082018927444796,0.025236593059936908,0.0,0.0,0.006309148264984227,0.025236593059936908,0.025236593059936908,0.012618296529968454,0.025236593059936908,0.025236593059936908,0.028391167192429023,0.022082018927444796,0.028391167192429023,0.022082018927444796,0.028391167192429023,0.028391167192429023,0.022082018927444796,0.01892744479495268
S3_D3 hbo,0.0,0.0,0.0031545741324921135,0.022082018927444796,0.0,0.025236593059936908,0.025236593059936908,0.0,0.025236593059936908,0.028391167192429023,0.022082018927444796,0.025236593059936908,0.028391167192429023,0.015772870662460567,0.025236593059936908,0.012618296529968454,0.022082018927444796,0.025236593059936908,0.012618296529968454,0.015772870662460567,0.028391167192429023,0.025236593059936908,0.028391167192429023,0.025236593059936908,0.022082018927444796,0.028391167192429023,0.028391167192429023,0.022082018927444796,0.025236593059936908,0.0,0.0,0.01892744479495268,0.025236593059936908,0.022082018927444796,0.022082018927444796,0.025236593059936908,0.0,0.0,0.006309148264984227,0.025236593059936908,0.025236593059936908,0.012618296529968454,0.025236593059936908,0.025236593059936908,0.028391167192429023,0.022082018927444796,0.028391167192429023,0.022082018927444796,0.028391167192429023,0.028391167192429023,0.022082018927444796,0.01892744479495268
S3_D4 hbo,0.0,0.0,0.0,0.0,0.0,0.0,0.0,0.0,0.0,0.0,0.0,0.0,0.0,0.0,0.0,0.0,0.0,0.0,0.0,0.0,0.0,0.0,0.0,0.0,0.0,0.0,0.0,0.0,0.0,0.0,0.0,0.0,0.0,0.0,0.0,0.0,0.0,0.0,0.0,0.0,0.0,0.0,0.0,0.0,0.0,0.0,0.0,0.0,0.0,0.0,0.0,0.0
S3_D5 hbo,0.0,0.0,0.0035460992907801418,0.02127659574468085,0.0,0.024822695035460994,0.024822695035460994,0.0,0.024822695035460994,0.028368794326241134,0.024822695035460994,0.024822695035460994,0.028368794326241134,0.01773049645390071,0.024822695035460994,0.014184397163120567,0.024822695035460994,0.024822695035460994,0.014184397163120567,0.014184397163120567,0.028368794326241134,0.024822695035460994,0.028368794326241134,0.024822695035460994,0.02127659574468085,0.028368794326241134,0.028368794326241134,0.024822695035460994,0.024822695035460994,0.0,0.0,0.01773049645390071,0.024822695035460994,0.02127659574468085,0.02127659574468085,0.024822695035460994,0.0,0.0,0.0070921985815602835,0.024822695035460994,0.024822695035460994,0.014184397163120567,0.024822695035460994,0.024822695035460994,0.028368794326241134,0.02127659574468085,0.028368794326241134,0.02127659574468085,0.028368794326241134,0.028368794326241134,0.02127659574468085,0.01773049645390071
S4_D2 hbo,0.0,0.0,0.002652519893899204,0.021220159151193633,0.0,0.023872679045092837,0.023872679045092837,0.0,0.021220159151193633,0.029177718832891247,0.01856763925729443,0.026525198938992044,0.029177718832891247,0.013262599469496022,0.021220159151193633,0.010610079575596816,0.01856763925729443,0.026525198938992044,0.013262599469496022,0.01856763925729443,0.029177718832891247,0.026525198938992044,0.029177718832891247,0.026525198938992044,0.023872679045092837,0.029177718832891247,0.03183023872679045,0.01856763925729443,0.026525198938992044,0.0,0.0,0.021220159151193633,0.026525198938992044,0.023872679045092837,0.023872679045092837,0.026525198938992044,0.0,0.0,0.005305039787798408,0.026525198938992044,0.026525198938992044,0.013262599469496022,0.026525198938992044,0.023872679045092837,0.026525198938992044,0.023872679045092837,0.023872679045092837,0.023872679045092837,0.029177718832891247,0.026525198938992044,0.021220159151193633,0.021220159151193633
S4_D4 hbo,0.0,0.0,0.004784688995215311,0.019138755980861243,0.0,0.023923444976076555,0.023923444976076555,0.0,0.023923444976076555,0.028708133971291867,0.028708133971291867,0.023923444976076555,0.028708133971291867,0.019138755980861243,0.023923444976076555,0.019138755980861243,0.023923444976076555,0.023923444976076555,0.023923444976076555,0.009569377990430622,0.028708133971291867,0.023923444976076555,0.028708133971291867,0.023923444976076555,0.019138755980861243,0.03349282296650718,0.03349282296650718,0.023923444976076555,0.023923444976076555,0.0,0.0,0.014354066985645933,0.023923444976076555,0.019138755980861243,0.019138755980861243,0.023923444976076555,0.0,0.0,0.004784688995215311,0.023923444976076555,0.023923444976076555,0.023923444976076555,0.023923444976076555,0.023923444976076555,0.028708133971291867,0.019138755980861243,0.028708133971291867,0.019138755980861243,0.028708133971291867,0.028708133971291867,0.019138755980861243,0.014354066985645933
S4_D6 hbo,0.0,0.0,0.002680965147453083,0.021447721179624665,0.0,0.024128686327077747,0.024128686327077747,0.0,0.021447721179624665,0.029490616621983913,0.01876675603217158,0.02680965147453083,0.029490616621983913,0.013404825737265416,0.021447721179624665,0.010723860589812333,0.01876675603217158,0.02680965147453083,0.010723860589812333,0.01876675603217158,0.029490616621983913,0.02680965147453083,0.029490616621983913,0.02680965147453083,0.024128686327077747,0.02680965147453083,0.029490616621983913,0.01876675603217158,0.02680965147453083,0.0,0.0,0.021447721179624665,0.02680965147453083,0.024128686327077747,0.024128686327077747,0.02680965147453083,0.0,0.0,0.005361930294906166,0.02680965147453083,0.02680965147453083,0.010723860589812333,0.02680965147453083,0.024128686327077747,0.02680965147453083,0.024128686327077747,0.024128686327077747,0.024128686327077747,0.029490616621983913,0.02680965147453083,0.021447721179624665,0.021447721179624665
S4_D11 hbo,0.0,0.0,0.002652519893899204,0.021220159151193633,0.0,0.023872679045092837,0.023872679045092837,0.0,0.021220159151193633,0.029177718832891247,0.01856763925729443,0.026525198938992044,0.029177718832891247,0.013262599469496022,0.021220159151193633,0.010610079575596816,0.01856763925729443,0.026525198938992044,0.013262599469496022,0.01856763925729443,0.029177718832891247,0.026525198938992044,0.029177718832891247,0.026525198938992044,0.023872679045092837,0.029177718832891247,0.03183023872679045,0.01856763925729443,0.026525198938992044,0.0,0.0,0.021220159151193633,0.026525198938992044,0.023872679045092837,0.023872679045092837,0.026525198938992044,0.0,0.0,0.005305039787798408,0.026525198938992044,0.026525198938992044,0.013262599469496022,0.026525198938992044,0.023872679045092837,0.026525198938992044,0.023872679045092837,0.023872679045092837,0.023872679045092837,0.029177718832891247,0.026525198938992044,0.021220159151193633,0.021220159151193633
S5_D3 hbo,0.0,0.0,0.005208333333333333,0.020833333333333332,0.0,0.026041666666666668,0.026041666666666668,0.0,0.026041666666666668,0.026041666666666668,0.026041666666666668,0.026041666666666668,0.026041666666666668,0.020833333333333332,0.026041666666666668,0.020833333333333332,0.026041666666666668,0.026041666666666668,0.015625,0.010416666666666666,0.026041666666666668,0.026041666666666668,0.026041666666666668,0.026041666666666668,0.020833333333333332,0.026041666666666668,0.026041666666666668,0.026041666666666668,0.026041666666666668,0.0,0.0,0.015625,0.026041666666666668,0.020833333333333332,0.020833333333333332,0.026041666666666668,0.0,0.0,0.005208333333333333,0.026041666666666668,0.026041666666666668,0.015625,0.026041666666666668,0.026041666666666668,0.026041666666666668,0.020833333333333332,0.026041666666666668,0.020833333333333332,0.026041666666666668,0.026041666666666668,0.020833333333333332,0.015625
S5_D5 hbo,0.0,0.0,0.0035460992907801418,0.02127659574468085,0.0,0.024822695035460994,0.024822695035460994,0.0,0.024822695035460994,0.028368794326241134,0.024822695035460994,0.024822695035460994,0.028368794326241134,0.01773049645390071,0.024822695035460994,0.014184397163120567,0.024822695035460994,0.024822695035460994,0.014184397163120567,0.014184397163120567,0.028368794326241134,0.024822695035460994,0.028368794326241134,0.024822695035460994,0.02127659574468085,0.028368794326241134,0.028368794326241134,0.024822695035460994,0.024822695035460994,0.0,0.0,0.01773049645390071,0.024822695035460994,0.02127659574468085,0.02127659574468085,0.024822695035460994,0.0,0.0,0.0070921985815602835,0.024822695035460994,0.024822695035460994,0.014184397163120567,0.024822695035460994,0.024822695035460994,0.028368794326241134,0.02127659574468085,0.028368794326241134,0.02127659574468085,0.028368794326241134,0.028368794326241134,0.02127659574468085,0.01773049645390071
S5_D7 hbo,0.0,0.0,0.0,0.016129032258064516,0.0,0.024193548387096774,0.024193548387096774,0.0,0.024193548387096774,0.03225806451612903,0.03225806451612903,0.024193548387096774,0.03225806451612903,0.016129032258064516,0.024193548387096774,0.024193548387096774,0.024193548387096774,0.024193548387096774,0.03225806451612903,0.0,0.03225806451612903,0.024193548387096774,0.03225806451612903,0.024193548387096774,0.016129032258064516,0.03225806451612903,0.03225806451612903,0.024193548387096774,0.024193548387096774,0.0,0.0,0.008064516129032258,0.024193548387096774,0.016129032258064516,0.016129032258064516,0.024193548387096774,0.0,0.0,0.0,0.024193548387096774,0.024193548387096774,0.03225806451612903,0.024193548387096774,0.024193548387096774,0.03225806451612903,0.016129032258064516,0.03225806451612903,0.016129032258064516,0.03225806451612903,0.03225806451612903,0.016129032258064516,0.008064516129032258
S6_D4 hbo,0.0,0.0,0.004081632653061225,0.02040816326530612,0.0,0.024489795918367346,0.024489795918367346,0.0,0.024489795918367346,0.02857142857142857,0.02857142857142857,0.024489795918367346,0.02857142857142857,0.02040816326530612,0.024489795918367346,0.0163265306122449,0.024489795918367346,0.024489795918367346,0.0163265306122449,0.012244897959183673,0.02857142857142857,0.024489795918367346,0.02857142857142857,0.024489795918367346,0.02040816326530612,0.02857142857142857,0.02857142857142857,0.024489795918367346,0.024489795918367346,0.0,0.0,0.0163265306122449,0.024489795918367346,0.02040816326530612,0.02040816326530612,0.024489795918367346,0.0,0.0,0.00816326530612245,0.024489795918367346,0.024489795918367346,0.0163265306122449,0.024489795918367346,0.024489795918367346,0.02857142857142857,0.02040816326530612,0.02857142857142857,0.02040816326530612,0.02857142857142857,0.02857142857142857,0.02040816326530612,0.0163265306122449
S6_D5 hbo,0.0,0.0,0.0028653295128939827,0.022922636103151862,0.0,0.025787965616045846,0.025787965616045846,0.0,0.022922636103151862,0.02865329512893983,0.02005730659025788,0.025787965616045846,0.02865329512893983,0.014326647564469915,0.022922636103151862,0.011461318051575931,0.02005730659025788,0.025787965616045846,0.011461318051575931,0.017191977077363897,0.02865329512893983,0.025787965616045846,0.02865329512893983,0.025787965616045846,0.022922636103151862,0.02865329512893983,0.02865329512893983,0.02005730659025788,0.025787965616045846,0.0,0.0,0.02005730659025788,0.025787965616045846,0.022922636103151862,0.022922636103151862,0.025787965616045846,0.0,0.0,0.0057306590257879654,0.025787965616045846,0.025787965616045846,0.011461318051575931,0.025787965616045846,0.025787965616045846,0.02865329512893983,0.022922636103151862,0.025787965616045846,0.022922636103151862,0.02865329512893983,0.02865329512893983,0.022922636103151862,0.02005730659025788
S6_D6 hbo,0.0,0.0,0.0,0.010752688172043012,0.0,0.021505376344086023,0.021505376344086023,0.0,0.021505376344086023,0.03225806451612903,0.03225806451612903,0.021505376344086023,0.03225806451612903,0.010752688172043012,0.021505376344086023,0.021505376344086023,0.021505376344086023,0.021505376344086023,0.07526881720430108,0.0,0.03225806451612903,0.021505376344086023,0.03225806451612903,0.021505376344086023,0.010752688172043012,0.043010752688172046,0.043010752688172046,0.021505376344086023,0.021505376344086023,0.0,0.0,0.0,0.021505376344086023,0.010752688172043012,0.010752688172043012,0.021505376344086023,0.0,0.0,0.0,0.021505376344086023,0.021505376344086023,0.07526881720430108,0.021505376344086023,0.021505376344086023,0.03225806451612903,0.010752688172043012,0.03225806451612903,0.010752688172043012,0.03225806451612903,0.03225806451612903,0.010752688172043012,0.0
S6_D8 hbo,0.0,0.0,0.0037593984962406013,0.02631578947368421,0.0,0.02631578947368421,0.02631578947368421,0.0,0.022556390977443608,0.02631578947368421,0.015037593984962405,0.02631578947368421,0.02631578947368421,0.015037593984962405,0.022556390977443608,0.007518796992481203,0.018796992481203006,0.02631578947368421,0.0037593984962406013,0.022556390977443608,0.02631578947368421,0.02631578947368421,0.02631578947368421,0.02631578947368421,0.02631578947368421,0.02631578947368421,0.02631578947368421,0.018796992481203006,0.02631578947368421,0.0,0.0,0.02631578947368421,0.02631578947368421,0.02631578947368421,0.02631578947368421,0.02631578947368421,0.0,0.0,0.007518796992481203,0.02631578947368421,0.02631578947368421,0.0037593984962406013,0.02631578947368421,0.02631578947368421,0.02631578947368421,0.02631578947368421,0.022556390977443608,0.02631578947368421,0.02631578947368421,0.02631578947368421,0.02631578947368421,0.02631578947368421
S7_D5 hbo,0.0,0.0,0.0028328611898017,0.0226628895184136,0.0,0.025495750708215296,0.025495750708215296,0.0,0.0226628895184136,0.028328611898016998,0.019830028328611898,0.025495750708215296,0.028328611898016998,0.014164305949008499,0.0226628895184136,0.0113314447592068,0.019830028328611898,0.025495750708215296,0.014164305949008499,0.0169971671388102,0.028328611898016998,0.025495750708215296,0.028328611898016998,0.025495750708215296,0.0226628895184136,0.031161473087818695,0.031161473087818695,0.019830028328611898,0.025495750708215296,0.0,0.0,0.019830028328611898,0.025495750708215296,0.0226628895184136,0.0226628895184136,0.025495750708215296,0.0,0.0,0.0056657223796034,0.025495750708215296,0.025495750708215296,0.014164305949008499,0.025495750708215296,0.025495750708215296,0.028328611898016998,0.0226628895184136,0.025495750708215296,0.0226628895184136,0.028328611898016998,0.028328611898016998,0.0226628895184136,0.019830028328611898
S7_D7 hbo,0.0,0.0,0.002680965147453083,0.021447721179624665,0.0,0.024128686327077747,0.024128686327077747,0.0,0.021447721179624665,0.029490616621983913,0.01876675603217158,0.02680965147453083,0.029490616621983913,0.013404825737265416,0.021447721179624665,0.010723860589812333,0.01876675603217158,0.02680965147453083,0.010723860589812333,0.01876675603217158,0.029490616621983913,0.02680965147453083,0.029490616621983913,0.02680965147453083,0.024128686327077747,0.02680965147453083,0.029490616621983913,0.01876675603217158,0.02680965147453083,0.0,0.0,0.021447721179624665,0.02680965147453083,0.024128686327077747,0.024128686327077747,0.02680965147453083,0.0,0.0,0.005361930294906166,0.02680965147453083,0.02680965147453083,0.010723860589812333,0.02680965147453083,0.024128686327077747,0.02680965147453083,0.024128686327077747,0.024128686327077747,0.024128686327077747,0.029490616621983913,0.02680965147453083,0.021447721179624665,0.021447721179624665
S7_D8 hbo,0.0,0.0,0.002652519893899204,0.021220159151193633,0.0,0.023872679045092837,0.023872679045092837,0.0,0.021220159151193633,0.029177718832891247,0.01856763925729443,0.026525198938992044,0.029177718832891247,0.013262599469496022,0.021220159151193633,0.010610079575596816,0.01856763925729443,0.026525198938992044,0.013262599469496022,0.01856763925729443,0.029177718832891247,0.026525198938992044,0.029177718832891247,0.026525198938992044,0.023872679045092837,0.029177718832891247,0.03183023872679045,0.01856763925729443,0.026525198938992044,0.0,0.0,0.021220159151193633,0.026525198938992044,0.023872679045092837,0.023872679045092837,0.026525198938992044,0.0,0.0,0.005305039787798408,0.026525198938992044,0.026525198938992044,0.013262599469496022,0.026525198938992044,0.023872679045092837,0.026525198938992044,0.023872679045092837,0.023872679045092837,0.023872679045092837,0.029177718832891247,0.026525198938992044,0.021220159151193633,0.021220159151193633
S8_D6 hbo,0.0,0.0,0.002680965147453083,0.021447721179624665,0.0,0.024128686327077747,0.024128686327077747,0.0,0.021447721179624665,0.029490616621983913,0.01876675603217158,0.02680965147453083,0.029490616621983913,0.013404825737265416,0.021447721179624665,0.010723860589812333,0.01876675603217158,0.02680965147453083,0.010723860589812333,0.01876675603217158,0.029490616621983913,0.02680965147453083,0.029490616621983913,0.02680965147453083,0.024128686327077747,0.02680965147453083,0.029490616621983913,0.01876675603217158,0.02680965147453083,0.0,0.0,0.021447721179624665,0.02680965147453083,0.024128686327077747,0.024128686327077747,0.02680965147453083,0.0,0.0,0.005361930294906166,0.02680965147453083,0.02680965147453083,0.010723860589812333,0.02680965147453083,0.024128686327077747,0.02680965147453083,0.024128686327077747,0.024128686327077747,0.024128686327077747,0.029490616621983913,0.02680965147453083,0.021447721179624665,0.021447721179624665
S8_D8 hbo,0.0,0.0,0.002976190476190476,0.023809523809523808,0.0,0.026785714285714284,0.026785714285714284,0.0,0.023809523809523808,0.026785714285714284,0.017857142857142856,0.026785714285714284,0.026785714285714284,0.01488095238095238,0.023809523809523808,0.011904761904761904,0.020833333333333332,0.026785714285714284,0.008928571428571428,0.017857142857142856,0.026785714285714284,0.026785714285714284,0.026785714285714284,0.026785714285714284,0.023809523809523808,0.026785714285714284,0.026785714285714284,0.020833333333333332,0.026785714285714284,0.0,0.0,0.020833333333333332,0.026785714285714284,0.023809523809523808,0.023809523809523808,0.026785714285714284,0.0,0.0,0.005952380952380952,0.026785714285714284,0.026785714285714284,0.008928571428571428,0.026785714285714284,0.026785714285714284,0.026785714285714284,0.023809523809523808,0.023809523809523808,0.023809523809523808,0.026785714285714284,0.026785714285714284,0.023809523809523808,0.020833333333333332
S8_D15 hbo,0.0,0.0,0.0030959752321981426,0.021671826625386997,0.0,0.02476780185758514,0.02476780185758514,0.0,0.02476780185758514,0.02786377708978328,0.021671826625386997,0.02476780185758514,0.02786377708978328,0.015479876160990712,0.02476780185758514,0.01238390092879257,0.021671826625386997,0.02476780185758514,0.018575851393188854,0.015479876160990712,0.02786377708978328,0.02476780185758514,0.02786377708978328,0.02476780185758514,0.021671826625386997,0.030959752321981424,0.030959752321981424,0.021671826625386997,0.02476780185758514,0.0,0.0,0.018575851393188854,0.02476780185758514,0.021671826625386997,0.021671826625386997,0.02476780185758514,0.0,0.0,0.006191950464396285,0.02476780185758514,0.02476780185758514,0.018575851393188854,0.02476780185758514,0.02476780185758514,0.02786377708978328,0.021671826625386997,0.02786377708978328,0.021671826625386997,0.02786377708978328,0.02786377708978328,0.021671826625386997,0.018575851393188854
S9_D2 hbo,0.0,0.0,0.0028169014084507044,0.022535211267605635,0.0,0.02535211267605634,0.02535211267605634,0.0,0.022535211267605635,0.028169014084507043,0.01971830985915493,0.02535211267605634,0.028169014084507043,0.014084507042253521,0.022535211267605635,0.011267605633802818,0.01971830985915493,0.02535211267605634,0.016901408450704224,0.016901408450704224,0.028169014084507043,0.02535211267605634,0.028169014084507043,0.02535211267605634,0.022535211267605635,0.030985915492957747,0.030985915492957747,0.01971830985915493,0.02535211267605634,0.0,0.0,0.01971830985915493,0.02535211267605634,0.022535211267605635,0.022535211267605635,0.02535211267605634,0.0,0.0,0.005633802816901409,0.02535211267605634,0.02535211267605634,0.016901408450704224,0.02535211267605634,0.02535211267605634,0.028169014084507043,0.022535211267605635,0.02535211267605634,0.022535211267605635,0.028169014084507043,0.028169014084507043,0.022535211267605635,0.01971830985915493
S9_D9 hbo,0.0,0.0,0.004081632653061225,0.02040816326530612,0.0,0.024489795918367346,0.024489795918367346,0.0,0.024489795918367346,0.02857142857142857,0.02857142857142857,0.024489795918367346,0.02857142857142857,0.02040816326530612,0.024489795918367346,0.0163265306122449,0.024489795918367346,0.024489795918367346,0.0163265306122449,0.012244897959183673,0.02857142857142857,0.024489795918367346,0.02857142857142857,0.024489795918367346,0.02040816326530612,0.02857142857142857,0.02857142857142857,0.024489795918367346,0.024489795918367346,0.0,0.0,0.0163265306122449,0.024489795918367346,0.02040816326530612,0.02040816326530612,0.024489795918367346,0.0,0.0,0.00816326530612245,0.024489795918367346,0.024489795918367346,0.0163265306122449,0.024489795918367346,0.024489795918367346,0.02857142857142857,0.02040816326530612,0.02857142857142857,0.02040816326530612,0.02857142857142857,0.02857142857142857,0.02040816326530612,0.0163265306122449
S9_D11 hbo,0.0,0.0,0.0028653295128939827,0.022922636103151862,0.0,0.025787965616045846,0.025787965616045846,0.0,0.022922636103151862,0.02865329512893983,0.02005730659025788,0.025787965616045846,0.02865329512893983,0.014326647564469915,0.022922636103151862,0.011461318051575931,0.02005730659025788,0.025787965616045846,0.011461318051575931,0.017191977077363897,0.02865329512893983,0.025787965616045846,0.02865329512893983,0.025787965616045846,0.022922636103151862,0.02865329512893983,0.02865329512893983,0.02005730659025788,0.025787965616045846,0.0,0.0,0.02005730659025788,0.025787965616045846,0.022922636103151862,0.022922636103151862,0.025787965616045846,0.0,0.0,0.0057306590257879654,0.025787965616045846,0.025787965616045846,0.011461318051575931,0.025787965616045846,0.025787965616045846,0.02865329512893983,0.022922636103151862,0.025787965616045846,0.022922636103151862,0.02865329512893983,0.02865329512893983,0.022922636103151862,0.02005730659025788
S10_D9 hbo,0.0,0.0,0.0,0.0,0.0,0.0,0.0,0.0,0.0,0.0,0.0,0.0,0.0,0.0,0.0,0.0,0.0,0.0,0.0,0.0,0.0,0.0,0.0,0.0,0.0,0.0,0.0,0.0,0.0,0.0,0.0,0.0,0.0,0.0,0.0,0.0,0.0,0.0,0.0,0.0,0.0,0.0,0.0,0.0,0.0,0.0,0.0,0.0,0.0,0.0,0.0,0.0
S10_D10 hbo,0.0,0.0,0.0,0.0,0.0,0.0,0.0,0.0,0.0,0.0,0.0,0.0,0.0,0.0,0.0,0.0,0.0,0.0,0.0,0.0,0.0,0.0,0.0,0.0,0.0,0.0,0.0,0.0,0.0,0.0,0.0,0.0,0.0,0.0,0.0,0.0,0.0,0.0,0.0,0.0,0.0,0.0,0.0,0.0,0.0,0.0,0.0,0.0,0.0,0.0,0.0,0.0
S10_D12 hbo,0.0,0.0,0.003278688524590164,0.02622950819672131,0.0,0.02622950819672131,0.02622950819672131,0.0,0.022950819672131147,0.02622950819672131,0.01639344262295082,0.02622950819672131,0.02622950819672131,0.01639344262295082,0.022950819672131147,0.009836065573770493,0.019672131147540985,0.02622950819672131,0.006557377049180328,0.019672131147540985,0.02622950819672131,0.02622950819672131,0.02622950819672131,0.02622950819672131,0.02622950819672131,0.02622950819672131,0.02622950819672131,0.019672131147540985,0.02622950819672131,0.0,0.0,0.022950819672131147,0.02622950819672131,0.02622950819672131,0.02622950819672131,0.02622950819672131,0.0,0.0,0.006557377049180328,0.02622950819672131,0.02622950819672131,0.006557377049180328,0.02622950819672131,0.02622950819672131,0.02622950819672131,0.02622950819672131,0.022950819672131147,0.02622950819672131,0.02622950819672131,0.02622950819672131,0.02622950819672131,0.022950819672131147
S11_D9 hbo,0.0,0.0,0.0028653295128939827,0.022922636103151862,0.0,0.025787965616045846,0.025787965616045846,0.0,0.022922636103151862,0.02865329512893983,0.02005730659025788,0.025787965616045846,0.02865329512893983,0.014326647564469915,0.022922636103151862,0.011461318051575931,0.02005730659025788,0.025787965616045846,0.011461318051575931,0.017191977077363897,0.02865329512893983,0.025787965616045846,0.02865329512893983,0.025787965616045846,0.022922636103151862,0.02865329512893983,0.02865329512893983,0.02005730659025788,0.025787965616045846,0.0,0.0,0.02005730659025788,0.025787965616045846,0.022922636103151862,0.022922636103151862,0.025787965616045846,0.0,0.0,0.0057306590257879654,0.025787965616045846,0.025787965616045846,0.011461318051575931,0.025787965616045846,0.025787965616045846,0.02865329512893983,0.022922636103151862,0.025787965616045846,0.022922636103151862,0.02865329512893983,0.02865329512893983,0.022922636103151862,0.02005730659025788
S11_D11 hbo,0.0,0.0,0.002777777777777778,0.022222222222222223,0.0,0.025,0.025,0.0,0.022222222222222223,0.027777777777777776,0.016666666666666666,0.027777777777777776,0.027777777777777776,0.013888888888888888,0.022222222222222223,0.011111111111111112,0.019444444444444445,0.027777777777777776,0.008333333333333333,0.019444444444444445,0.027777777777777776,0.027777777777777776,0.027777777777777776,0.027777777777777776,0.025,0.025,0.027777777777777776,0.019444444444444445,0.027777777777777776,0.0,0.0,0.022222222222222223,0.027777777777777776,0.025,0.025,0.027777777777777776,0.0,0.0,0.005555555555555556,0.027777777777777776,0.027777777777777776,0.008333333333333333,0.027777777777777776,0.025,0.025,0.025,0.022222222222222223,0.025,0.027777777777777776,0.025,0.022222222222222223,0.022222222222222223
S11_D12 hbo,0.0,0.0,0.002777777777777778,0.022222222222222223,0.0,0.025,0.025,0.0,0.022222222222222223,0.027777777777777776,0.016666666666666666,0.027777777777777776,0.027777777777777776,0.013888888888888888,0.022222222222222223,0.011111111111111112,0.019444444444444445,0.027777777777777776,0.008333333333333333,0.019444444444444445,0.027777777777777776,0.027777777777777776,0.027777777777777776,0.027777777777777776,0.025,0.025,0.027777777777777776,0.019444444444444445,0.027777777777777776,0.0,0.0,0.022222222222222223,0.027777777777777776,0.025,0.025,0.027777777777777776,0.0,0.0,0.005555555555555556,0.027777777777777776,0.027777777777777776,0.008333333333333333,0.027777777777777776,0.025,0.025,0.025,0.022222222222222223,0.025,0.027777777777777776,0.025,0.022222222222222223,0.022222222222222223
S11_D13 hbo,0.0,0.0,0.0028653295128939827,0.022922636103151862,0.0,0.025787965616045846,0.025787965616045846,0.0,0.022922636103151862,0.02865329512893983,0.02005730659025788,0.025787965616045846,0.02865329512893983,0.014326647564469915,0.022922636103151862,0.011461318051575931,0.02005730659025788,0.025787965616045846,0.011461318051575931,0.017191977077363897,0.02865329512893983,0.025787965616045846,0.02865329512893983,0.025787965616045846,0.022922636103151862,0.02865329512893983,0.02865329512893983,0.02005730659025788,0.025787965616045846,0.0,0.0,0.02005730659025788,0.025787965616045846,0.022922636103151862,0.022922636103151862,0.025787965616045846,0.0,0.0,0.0057306590257879654,0.025787965616045846,0.025787965616045846,0.011461318051575931,0.025787965616045846,0.025787965616045846,0.02865329512893983,0.022922636103151862,0.025787965616045846,0.022922636103151862,0.02865329512893983,0.02865329512893983,0.022922636103151862,0.02005730659025788
S12_D10 hbo,0.0,0.0,0.0,0.0,0.0,0.0,0.0,0.0,0.0,0.0,0.0,0.0,0.0,0.0,0.0,0.0,0.0,0.0,0.0,0.0,0.0,0.0,0.0,0.0,0.0,0.0,0.0,0.0,0.0,0.0,0.0,0.0,0.0,0.0,0.0,0.0,0.0,0.0,0.0,0.0,0.0,0.0,0.0,0.0,0.0,0.0,0.0,0.0,0.0,0.0,0.0,0.0
S12_D12 hbo,0.0,0.0,0.0,0.0,0.0,0.0,0.0,0.0,0.0,0.0,0.0,0.0,0.0,0.0,0.0,0.0,0.0,0.0,0.0,0.0,0.0,0.0,0.0,0.0,0.0,0.0,0.0,0.0,0.0,0.0,0.0,0.0,0.0,0.0,0.0,0.0,0.0,0.0,0.0,0.0,0.0,0.0,0.0,0.0,0.0,0.0,0.0,0.0,0.0,0.0,0.0,0.0
S12_D14 hbo,0.0,0.0,0.012345679012345678,0.024691358024691357,0.0,0.024691358024691357,0.024691358024691357,0.0,0.024691358024691357,0.024691358024691357,0.024691358024691357,0.024691358024691357,0.024691358024691357,0.024691358024691357,0.024691358024691357,0.012345679012345678,0.024691358024691357,0.024691358024691357,0.0,0.024691358024691357,0.024691358024691357,0.024691358024691357,0.024691358024691357,0.024691358024691357,0.024691358024691357,0.024691358024691357,0.024691358024691357,0.024691358024691357,0.024691358024691357,0.0,0.0,0.024691358024691357,0.024691358024691357,0.024691358024691357,0.024691358024691357,0.024691358024691357,0.0,0.0,0.012345679012345678,0.024691358024691357,0.024691358024691357,0.0,0.024691358024691357,0.024691358024691357,0.024691358024691357,0.024691358024691357,0.024691358024691357,0.024691358024691357,0.024691358024691357,0.024691358024691357,0.024691358024691357,0.024691358024691357
S13_D6 hbo,0.0,0.0,0.002680965147453083,0.021447721179624665,0.0,0.024128686327077747,0.024128686327077747,0.0,0.021447721179624665,0.029490616621983913,0.01876675603217158,0.02680965147453083,0.029490616621983913,0.013404825737265416,0.021447721179624665,0.010723860589812333,0.01876675603217158,0.02680965147453083,0.010723860589812333,0.01876675603217158,0.029490616621983913,0.02680965147453083,0.029490616621983913,0.02680965147453083,0.024128686327077747,0.02680965147453083,0.029490616621983913,0.01876675603217158,0.02680965147453083,0.0,0.0,0.021447721179624665,0.02680965147453083,0.024128686327077747,0.024128686327077747,0.02680965147453083,0.0,0.0,0.005361930294906166,0.02680965147453083,0.02680965147453083,0.010723860589812333,0.02680965147453083,0.024128686327077747,0.02680965147453083,0.024128686327077747,0.024128686327077747,0.024128686327077747,0.029490616621983913,0.02680965147453083,0.021447721179624665,0.021447721179624665
S13_D11 hbo,0.0,0.0,0.002680965147453083,0.021447721179624665,0.0,0.024128686327077747,0.024128686327077747,0.0,0.021447721179624665,0.029490616621983913,0.01876675603217158,0.02680965147453083,0.029490616621983913,0.013404825737265416,0.021447721179624665,0.010723860589812333,0.01876675603217158,0.02680965147453083,0.010723860589812333,0.01876675603217158,0.029490616621983913,0.02680965147453083,0.029490616621983913,0.02680965147453083,0.024128686327077747,0.02680965147453083,0.029490616621983913,0.01876675603217158,0.02680965147453083,0.0,0.0,0.021447721179624665,0.02680965147453083,0.024128686327077747,0.024128686327077747,0.02680965147453083,0.0,0.0,0.005361930294906166,0.02680965147453083,0.02680965147453083,0.010723860589812333,0.02680965147453083,0.024128686327077747,0.02680965147453083,0.024128686327077747,0.024128686327077747,0.024128686327077747,0.029490616621983913,0.02680965147453083,0.021447721179624665,0.021447721179624665
S13_D13 hbo,0.0,0.0,0.0,0.010752688172043012,0.0,0.021505376344086023,0.021505376344086023,0.0,0.021505376344086023,0.03225806451612903,0.03225806451612903,0.021505376344086023,0.03225806451612903,0.010752688172043012,0.021505376344086023,0.021505376344086023,0.021505376344086023,0.021505376344086023,0.07526881720430108,0.0,0.03225806451612903,0.021505376344086023,0.03225806451612903,0.021505376344086023,0.010752688172043012,0.043010752688172046,0.043010752688172046,0.021505376344086023,0.021505376344086023,0.0,0.0,0.0,0.021505376344086023,0.010752688172043012,0.010752688172043012,0.021505376344086023,0.0,0.0,0.0,0.021505376344086023,0.021505376344086023,0.07526881720430108,0.021505376344086023,0.021505376344086023,0.03225806451612903,0.010752688172043012,0.03225806451612903,0.010752688172043012,0.03225806451612903,0.03225806451612903,0.010752688172043012,0.0
S13_D15 hbo,0.0,0.0,0.002680965147453083,0.021447721179624665,0.0,0.024128686327077747,0.024128686327077747,0.0,0.021447721179624665,0.029490616621983913,0.01876675603217158,0.02680965147453083,0.029490616621983913,0.013404825737265416,0.021447721179624665,0.010723860589812333,0.01876675603217158,0.02680965147453083,0.010723860589812333,0.01876675603217158,0.029490616621983913,0.02680965147453083,0.029490616621983913,0.02680965147453083,0.024128686327077747,0.02680965147453083,0.029490616621983913,0.01876675603217158,0.02680965147453083,0.0,0.0,0.021447721179624665,0.02680965147453083,0.024128686327077747,0.024128686327077747,0.02680965147453083,0.0,0.0,0.005361930294906166,0.02680965147453083,0.02680965147453083,0.010723860589812333,0.02680965147453083,0.024128686327077747,0.02680965147453083,0.024128686327077747,0.024128686327077747,0.024128686327077747,0.029490616621983913,0.02680965147453083,0.021447721179624665,0.021447721179624665
S14_D12 hbo,0.0,0.0,0.0031545741324921135,0.022082018927444796,0.0,0.025236593059936908,0.025236593059936908,0.0,0.025236593059936908,0.028391167192429023,0.022082018927444796,0.025236593059936908,0.028391167192429023,0.015772870662460567,0.025236593059936908,0.012618296529968454,0.022082018927444796,0.025236593059936908,0.012618296529968454,0.015772870662460567,0.028391167192429023,0.025236593059936908,0.028391167192429023,0.025236593059936908,0.022082018927444796,0.028391167192429023,0.028391167192429023,0.022082018927444796,0.025236593059936908,0.0,0.0,0.01892744479495268,0.025236593059936908,0.022082018927444796,0.022082018927444796,0.025236593059936908,0.0,0.0,0.006309148264984227,0.025236593059936908,0.025236593059936908,0.012618296529968454,0.025236593059936908,0.025236593059936908,0.028391167192429023,0.022082018927444796,0.028391167192429023,0.022082018927444796,0.028391167192429023,0.028391167192429023,0.022082018927444796,0.01892744479495268
S14_D13 hbo,0.0,0.0,0.003115264797507788,0.021806853582554516,0.0,0.024922118380062305,0.024922118380062305,0.0,0.024922118380062305,0.028037383177570093,0.021806853582554516,0.024922118380062305,0.028037383177570093,0.01557632398753894,0.024922118380062305,0.012461059190031152,0.021806853582554516,0.024922118380062305,0.01557632398753894,0.01557632398753894,0.028037383177570093,0.024922118380062305,0.028037383177570093,0.024922118380062305,0.021806853582554516,0.03115264797507788,0.03115264797507788,0.021806853582554516,0.024922118380062305,0.0,0.0,0.018691588785046728,0.024922118380062305,0.021806853582554516,0.021806853582554516,0.024922118380062305,0.0,0.0,0.006230529595015576,0.024922118380062305,0.024922118380062305,0.01557632398753894,0.024922118380062305,0.024922118380062305,0.028037383177570093,0.021806853582554516,0.028037383177570093,0.021806853582554516,0.028037383177570093,0.028037383177570093,0.021806853582554516,0.018691588785046728
S14_D14 hbo,0.0,0.0,0.002976190476190476,0.023809523809523808,0.0,0.026785714285714284,0.026785714285714284,0.0,0.023809523809523808,0.026785714285714284,0.017857142857142856,0.026785714285714284,0.026785714285714284,0.01488095238095238,0.023809523809523808,0.011904761904761904,0.020833333333333332,0.026785714285714284,0.008928571428571428,0.017857142857142856,0.026785714285714284,0.026785714285714284,0.026785714285714284,0.026785714285714284,0.023809523809523808,0.026785714285714284,0.026785714285714284,0.020833333333333332,0.026785714285714284,0.0,0.0,0.020833333333333332,0.026785714285714284,0.023809523809523808,0.023809523809523808,0.026785714285714284,0.0,0.0,0.005952380952380952,0.026785714285714284,0.026785714285714284,0.008928571428571428,0.026785714285714284,0.026785714285714284,0.026785714285714284,0.023809523809523808,0.023809523809523808,0.023809523809523808,0.026785714285714284,0.026785714285714284,0.023809523809523808,0.020833333333333332
S14_D16 hbo,0.0,0.0,0.0034965034965034965,0.02097902097902098,0.0,0.024475524475524476,0.024475524475524476,0.0,0.024475524475524476,0.027972027972027972,0.024475524475524476,0.024475524475524476,0.027972027972027972,0.017482517482517484,0.024475524475524476,0.013986013986013986,0.024475524475524476,0.024475524475524476,0.017482517482517484,0.013986013986013986,0.027972027972027972,0.024475524475524476,0.027972027972027972,0.024475524475524476,0.02097902097902098,0.03146853146853147,0.03146853146853147,0.024475524475524476,0.024475524475524476,0.0,0.0,0.017482517482517484,0.024475524475524476,0.02097902097902098,0.02097902097902098,0.024475524475524476,0.0,0.0,0.006993006993006993,0.024475524475524476,0.024475524475524476,0.017482517482517484,0.024475524475524476,0.024475524475524476,0.027972027972027972,0.02097902097902098,0.027972027972027972,0.02097902097902098,0.027972027972027972,0.027972027972027972,0.02097902097902098,0.017482517482517484
S15_D13 hbo,0.0,0.0,0.002976190476190476,0.023809523809523808,0.0,0.026785714285714284,0.026785714285714284,0.0,0.023809523809523808,0.026785714285714284,0.017857142857142856,0.026785714285714284,0.026785714285714284,0.01488095238095238,0.023809523809523808,0.011904761904761904,0.020833333333333332,0.026785714285714284,0.008928571428571428,0.017857142857142856,0.026785714285714284,0.026785714285714284,0.026785714285714284,0.026785714285714284,0.023809523809523808,0.026785714285714284,0.026785714285714284,0.020833333333333332,0.026785714285714284,0.0,0.0,0.020833333333333332,0.026785714285714284,0.023809523809523808,0.023809523809523808,0.026785714285714284,0.0,0.0,0.005952380952380952,0.026785714285714284,0.026785714285714284,0.008928571428571428,0.026785714285714284,0.026785714285714284,0.026785714285714284,0.023809523809523808,0.023809523809523808,0.023809523809523808,0.026785714285714284,0.026785714285714284,0.023809523809523808,0.020833333333333332
S15_D15 hbo,0.0,0.0,0.0028328611898017,0.0226628895184136,0.0,0.025495750708215296,0.025495750708215296,0.0,0.0226628895184136,0.028328611898016998,0.019830028328611898,0.025495750708215296,0.028328611898016998,0.014164305949008499,0.0226628895184136,0.0113314447592068,0.019830028328611898,0.025495750708215296,0.014164305949008499,0.0169971671388102,0.028328611898016998,0.025495750708215296,0.028328611898016998,0.025495750708215296,0.0226628895184136,0.031161473087818695,0.031161473087818695,0.019830028328611898,0.025495750708215296,0.0,0.0,0.019830028328611898,0.025495750708215296,0.0226628895184136,0.0226628895184136,0.025495750708215296,0.0,0.0,0.0056657223796034,0.025495750708215296,0.025495750708215296,0.014164305949008499,0.025495750708215296,0.025495750708215296,0.028328611898016998,0.0226628895184136,0.025495750708215296,0.0226628895184136,0.028328611898016998,0.028328611898016998,0.0226628895184136,0.019830028328611898
S15_D16 hbo,0.0,0.0,0.003115264797507788,0.021806853582554516,0.0,0.024922118380062305,0.024922118380062305,0.0,0.024922118380062305,0.028037383177570093,0.021806853582554516,0.024922118380062305,0.028037383177570093,0.01557632398753894,0.024922118380062305,0.012461059190031152,0.021806853582554516,0.024922118380062305,0.01557632398753894,0.01557632398753894,0.028037383177570093,0.024922118380062305,0.028037383177570093,0.024922118380062305,0.021806853582554516,0.03115264797507788,0.03115264797507788,0.021806853582554516,0.024922118380062305,0.0,0.0,0.018691588785046728,0.024922118380062305,0.021806853582554516,0.021806853582554516,0.024922118380062305,0.0,0.0,0.006230529595015576,0.024922118380062305,0.024922118380062305,0.01557632398753894,0.024922118380062305,0.024922118380062305,0.028037383177570093,0.021806853582554516,0.028037383177570093,0.021806853582554516,0.028037383177570093,0.028037383177570093,0.021806853582554516,0.018691588785046728
S16_D14 hbo,0.0,0.0,0.003289473684210526,0.023026315789473683,0.0,0.02631578947368421,0.02631578947368421,0.0,0.02631578947368421,0.02631578947368421,0.019736842105263157,0.02631578947368421,0.02631578947368421,0.01644736842105263,0.02631578947368421,0.013157894736842105,0.023026315789473683,0.02631578947368421,0.009868421052631578,0.01644736842105263,0.02631578947368421,0.02631578947368421,0.02631578947368421,0.02631578947368421,0.023026315789473683,0.02631578947368421,0.02631578947368421,0.023026315789473683,0.02631578947368421,0.0,0.0,0.019736842105263157,0.02631578947368421,0.023026315789473683,0.023026315789473683,0.02631578947368421,0.0,0.0,0.006578947368421052,0.02631578947368421,0.02631578947368421,0.009868421052631578,0.02631578947368421,0.02631578947368421,0.02631578947368421,0.023026315789473683,0.02631578947368421,0.023026315789473683,0.02631578947368421,0.02631578947368421,0.023026315789473683,0.019736842105263157
S16_D16 hbo,0.0,0.0,0.003278688524590164,0.02622950819672131,0.0,0.02622950819672131,0.02622950819672131,0.0,0.022950819672131147,0.02622950819672131,0.01639344262295082,0.02622950819672131,0.02622950819672131,0.01639344262295082,0.022950819672131147,0.009836065573770493,0.019672131147540985,0.02622950819672131,0.006557377049180328,0.019672131147540985,0.02622950819672131,0.02622950819672131,0.02622950819672131,0.02622950819672131,0.02622950819672131,0.02622950819672131,0.02622950819672131,0.019672131147540985,0.02622950819672131,0.0,0.0,0.022950819672131147,0.02622950819672131,0.02622950819672131,0.02622950819672131,0.02622950819672131,0.0,0.0,0.006557377049180328,0.02622950819672131,0.02622950819672131,0.006557377049180328,0.02622950819672131,0.02622950819672131,0.02622950819672131,0.02622950819672131,0.022950819672131147,0.02622950819672131,0.02622950819672131,0.02622950819672131,0.02622950819672131,0.022950819672131147
