,S1_D1 hbo,S1_D3 hbo,S2_D1 hbo,S2_D2 hbo,S2_D4 hbo,S3_D1 hbo,S3_D3 hbo,S3_D4 hbo,S3_D5 hbo,S4_D2 hbo,S4_D4 hbo,S4_D6 hbo,S4_D11 hbo,S5_D3 hbo,S5_D5 hbo,S5_D7 hbo,S6_D4 hbo,S6_D5 hbo,S6_D6 hbo,S6_D8 hbo,S7_D5 hbo,S7_D7 hbo,S7_D8 hbo,S8_D6 hbo,S8_D8 hbo,S8_D15 hbo,S9_D2 hbo,S9_D9 hbo,S9_D11 hbo,S10_D9 hbo,S10_D10 hbo,S10_D12 hbo,S11_D9 hbo,S11_D11 hbo,S11_D12 hbo,S11_D13 hbo,S12_D10 hbo,S12_D12 hbo,S12_D14 hbo,S13_D6 hbo,S13_D11 hbo,S13_D13 hbo,S13_D15 hbo,S14_D12 hbo,S14_D13 hbo,S14_D14 hbo,S14_D16 hbo,S15_D13 hbo,S15_D15 hbo,S15_D16 hbo,S16_D14 hbo,S16_D16 hbo
S1_D1 hbo,0.0,0.0,0.0,0.0,0.0,0.0,0.0,0.0,0.0,0.0,0.0,0.0,0.0,0.0,0.0,0.0,0.0,0.0,0.0,0.0,0.0,0.0,0.0,0.0,0.0,0.0,0.0,0.0,0.0,0.0,0.0,0.0,0.0,0.0,0.0,0.0,0.0,0.0,0.0,0.0,0.0,0.0,0.0,0.0,0.0,0.0,0.0,0.0,0.0,0.0,0.0,0.0
S1_D3 hbo,0.0,0.0,0.0,0.0,0.0,0.0,0.0,0.0,0.0,0.0,0.0,0.0,0.0,0.0,0.0,0.0,0.0,0.0,0.0,0.0,0.0,0.0,0.0,0.0,0.0,0.0,0.0,0.0,0.0,0.0,0.0,0.0,0.0,0.0,0.0,0.0,0.0,0.0,0.0,0.0,0.0,0.0,0.0,0.0,0.0,0.0,0.0,0.0,0.0,0.0,0.0,0.0
S2_D1 hbo,0.0,0.0,0.0,0.0,0.0,0.0,0.0,0.0,0.0,0.0,0.0,0.0,0.0,0.0,0.0,0.0,0.0,0.0,0.0,0.0,0.0,0.0,0.0,0.0,0.0,0.0,0.0,0.0,0.0,0.0,0.0,0.0,0.0,0.0,0.0,0.0,0.0,0.0,0.0,0.0,0.0,0.0,0.0,0.0,0.0,0.0,0.0,0.0,0.0,0.0,0.0,0.0
S2_D2 hbo,0.0,0.0,0.0,0.0,0.0,0.0,0.0,0.0,0.0,0.0,0.0,0.0,0.0,0.0,0.0,0.0,0.0,0.0,0.0,0.0,0.0,0.0,0.0,0.0,0.0,0.0,0.0,0.0,0.0,0.0,0.0,0.0,0.0,0.0,0.0,0.0,0.0,0.0,0.0,0.0,0.0,0.0,0.0,0.0,0.0,0.0,0.0,0.0,0.0,0.0,0.0,0.0
S2_D4 hbo,0.0,0.0,0.0,0.0,0.0,0.0,0.0,0.0,0.0,0.0,0.0,0.0,0.0,0.0,0.0,0.0,0.0,0.0,0.0,0.0,0.0,0.0,0.0,0.0,0.0,0.0,0.0,0.0,0.0,0.0,0.0,0.0,0.0,0.0,0.0,0.0,0.0,0.0,0.0,0.0,0.0,0.0,0.0,0.0,0.0,0.0,0.0,0.0,0.0,0.0,0.0,0.0
S3_D1 hbo,0.0,0.0,0.0,0.0,0.0,0.0,0.0,0.0,0.0,0.0,0.0,0.0,0.0,0.0,0.0,0.0,0.0,0.0,0.0,0.0,0.0,0.0,0.0,0.0,0.0,0.0,0.0,0.0,0.0,0.0,0.0,0.0,0.0,0.0,0.0,0.0,0.0,0.0,0.0,0.0,0.0,0.0,0.0,0.0,0.0,0.0,0.0,0.0,0.0,0.0,0.0,0.0
S3_D3 hbo,0.0,0.0,0.0,0.0,0.0,0.0,0.0,0.0,0.0,0.0,0.0,0.0,0.0,0.0,0.0,0.0,0.0,0.0,0.0,0.0,0.0,0.0,0.0,0.0,0.0,0.0,0.0,0.0,0.0,0.0,0.0,0.0,0.0,0.0,0.0,0.0,0.0,0.0,0.0,0.0,0.0,0.0,0.0,0.0,0.0,0.0,0.0,0.0,0.0,0.0,0.0,0.0
S3_D4 hbo,0.0,0.0,0.0,0.0,0.0,0.0,0.0,0.05952380952380952,0.0,0.0,0.0,0.07142857142857142,0.011904761904761904,0.0,0.0,0.03571428571428571,0.03571428571428571,0.0,0.07142857142857142,0.0,0.0,0.047619047619047616,0.05952380952380952,0.0,0.0,0.0,0.03571428571428571,0.05952380952380952,0.0,0.03571428571428571,0.0,0.0,0.07142857142857142,0.0,0.0,0.03571428571428571,0.0,0.0,0.0,0.0,0.0,0.03571428571428571,0.07142857142857142,0.047619047619047616,0.023809523809523808,0.07142857142857142,0.0,0.0,0.05952380952380952,0.0,0.011904761904761904,0.047619047619047616
S3_D5 hbo,0.0,0.0,0.0,0.0,0.0,0.0,0.0,0.0,0.0,0.0,0.0,0.0,0.0,0.0,0.0,0.0,0.0,0.0,0.0,0.0,0.0,0.0,0.0,0.0,0.0,0.0,0.0,0.0,0.0,0.0,0.0,0.0,0.0,0.0,0.0,0.0,0.0,0.0,0.0,0.0,0.0,0.0,0.0,0.0,0.0,0.0,0.0,0.0,0.0,0.0,0.0,0.0
S4_D2 hbo,0.0,0.0,0.0,0.0,0.0,0.0,0.0,0.0,0.0,0.0,0.0,0.0,0.0,0.0,0.0,0.0,0.0,0.0,0.0,0.0,0.0,0.0,0.0,0.0,0.0,0.0,0.0,0.0,0.0,0.0,0.0,0.0,0.0,0.0,0.0,0.0,0.0,0.0,0.0,0.0,0.0,0.0,0.0,0.0,0.0,0.0,0.0,0.0,0.0,0.0,0.0,0.0
S4_D4 hbo,0.0,0.0,0.0,0.0,0.0,0.0,0.0,0.0,0.0,0.0,0.0,0.0,0.0,0.0,0.0,0.0,0.0,0.0,0.0,0.0,0.0,0.0,0.0,0.0,0.0,0.0,0.0,0.0,0.0,0.0,0.0,0.0,0.0,0.0,0.0,0.0,0.0,0.0,0.0,0.0,0.0,0.0,0.0,0.0,0.0,0.0,0.0,0.0,0.0,0.0,0.0,0.0
S4_D6 hbo,0.0,0.0,0.0,0.0,0.0,0.0,0.0,0.06060606060606061,0.0,0.0,0.0,0.07575757575757576,0.0,0.0,0.0,0.030303030303030304,0.030303030303030304,0.0,0.07575757575757576,0.0,0.0,0.045454545454545456,0.06060606060606061,0.0,0.0,0.0,0.030303030303030304,0.06060606060606061,0.0,0.045454545454545456,0.0,0.0,0.07575757575757576,0.0,0.0,0.030303030303030304,0.0,0.0,0.0,0.0,0.0,0.030303030303030304,0.07575757575757576,0.045454545454545456,0.015151515151515152,0.07575757575757576,0.0,0.0,0.06060606060606061,0.0,0.015151515151515152,0.06060606060606061
S4_D11 hbo,0.0,0.0,0.0,0.0,0.0,0.0,0.0,0.046153846153846156,0.0,0.0,0.0,0.03076923076923077,0.07692307692307693,0.0,0.0,0.03076923076923077,0.03076923076923077,0.0,0.06153846153846154,0.0,0.0,0.03076923076923077,0.046153846153846156,0.0,0.0,0.0,0.07692307692307693,0.046153846153846156,0.0,0.015384615384615385,0.0,0.0,0.046153846153846156,0.0,0.0,0.06153846153846154,0.0,0.0,0.0,0.03076923076923077,0.0,0.07692307692307693,0.03076923076923077,0.03076923076923077,0.07692307692307693,0.03076923076923077,0.0,0.06153846153846154,0.046153846153846156,0.0,0.0,0.015384615384615385
S5_D3 hbo,0.0,0.0,0.0,0.0,0.0,0.0,0.0,0.0,0.0,0.0,0.0,0.0,0.0,0.0,0.0,0.0,0.0,0.0,0.0,0.0,0.0,0.0,0.0,0.0,0.0,0.0,0.0,0.0,0.0,0.0,0.0,0.0,0.0,0.0,0.0,0.0,0.0,0.0,0.0,0.0,0.0,0.0,0.0,0.0,0.0,0.0,0.0,0.0,0.0,0.0,0.0,0.0
S5_D5 hbo,0.0,0.0,0.0,0.0,0.0,0.0,0.0,0.0,0.0,0.0,0.0,0.0,0.0,0.0,0.0,0.0,0.0,0.0,0.0,0.0,0.0,0.0,0.0,0.0,0.0,0.0,0.0,0.0,0.0,0.0,0.0,0.0,0.0,0.0,0.0,0.0,0.0,0.0,0.0,0.0,0.0,0.0,0.0,0.0,0.0,0.0,0.0,0.0,0.0,0.0,0.0,0.0
S5_D7 hbo,0.0,0.0,0.0,0.0,0.0,0.0,0.0,0.058823529411764705,0.0,0.0,0.0,0.058823529411764705,0.0,0.0,0.0,0.0392156862745098,0.0392156862745098,0.0,0.058823529411764705,0.0,0.0,0.058823529411764705,0.058823529411764705,0.0,0.0,0.0,0.0392156862745098,0.058823529411764705,0.0,0.058823529411764705,0.0,0.0,0.058823529411764705,0.0,0.0,0.0392156862745098,0.0,0.0,0.0,0.0,0.0,0.0392156862745098,0.058823529411764705,0.058823529411764705,0.0196078431372549,0.058823529411764705,0.0,0.0,0.058823529411764705,0.0,0.0196078431372549,0.058823529411764705
S6_D4 hbo,0.0,0.0,0.0,0.0,0.0,0.0,0.0,0.058823529411764705,0.0,0.0,0.0,0.058823529411764705,0.0,0.0,0.0,0.0392156862745098,0.0392156862745098,0.0,0.058823529411764705,0.0,0.0,0.058823529411764705,0.058823529411764705,0.0,0.0,0.0,0.0392156862745098,0.058823529411764705,0.0,0.058823529411764705,0.0,0.0,0.058823529411764705,0.0,0.0,0.0392156862745098,0.0,0.0,0.0,0.0,0.0,0.0392156862745098,0.058823529411764705,0.058823529411764705,0.0196078431372549,0.058823529411764705,0.0,0.0,0.058823529411764705,0.0,0.0196078431372549,0.058823529411764705
S6_D5 hbo,0.0,0.0,0.0,0.0,0.0,0.0,0.0,0.0,0.0,0.0,0.0,0.0,0.0,0.0,0.0,0.0,0.0,0.0,0.0,0.0,0.0,0.0,0.0,0.0,0.0,0.0,0.0,0.0,0.0,0.0,0.0,0.0,0.0,0.0,0.0,0.0,0.0,0.0,0.0,0.0,0.0,0.0,0.0,0.0,0.0,0.0,0.0,0.0,0.0,0.0,0.0,0.0
S6_D6 hbo,0.0,0.0,0.0,0.0,0.0,0.0,0.0,0.061855670103092786,0.0,0.0,0.0,0.061855670103092786,0.020618556701030927,0.0,0.0,0.030927835051546393,0.030927835051546393,0.0,0.07216494845360824,0.0,0.0,0.041237113402061855,0.061855670103092786,0.0,0.0,0.0,0.041237113402061855,0.061855670103092786,0.0,0.030927835051546393,0.0,0.0,0.07216494845360824,0.0,0.0,0.041237113402061855,0.0,0.0,0.0,0.010309278350515464,0.0,0.041237113402061855,0.061855670103092786,0.041237113402061855,0.030927835051546393,0.061855670103092786,0.0,0.010309278350515464,0.061855670103092786,0.0,0.010309278350515464,0.041237113402061855
S6_D8 hbo,0.0,0.0,0.0,0.0,0.0,0.0,0.0,0.0,0.0,0.0,0.0,0.0,0.0,0.0,0.0,0.0,0.0,0.0,0.0,0.0,0.0,0.0,0.0,0.0,0.0,0.0,0.0,0.0,0.0,0.0,0.0,0.0,0.0,0.0,0.0,0.0,0.0,0.0,0.0,0.0,0.0,0.0,0.0,0.0,0.0,0.0,0.0,0.0,0.0,0.0,0.0,0.0
S7_D5 hbo,0.0,0.0,0.0,0.0,0.0,0.0,0.0,0.0,0.0,0.0,0.0,0.0,0.0,0.0,0.0,0.0,0.0,0.0,0.0,0.0,1.0,0.0,0.0,0.0,0.0,0.0,0.0,0.0,0.0,0.0,0.0,0.0,0.0,0.0,0.0,0.0,0.0,0.0,0.0,0.0,0.0,0.0,0.0,0.0,0.0,0.0,0.0,0.0,0.0,0.0,0.0,0.0
S7_D7 hbo,0.0,0.0,0.0,0.0,0.0,0.0,0.0,0.06557377049180328,0.0,0.0,0.0,0.06557377049180328,0.0,0.0,0.0,0.03278688524590164,0.03278688524590164,0.0,0.06557377049180328,0.0,0.0,0.04918032786885246,0.06557377049180328,0.0,0.0,0.0,0.03278688524590164,0.06557377049180328,0.0,0.04918032786885246,0.0,0.0,0.06557377049180328,0.0,0.0,0.03278688524590164,0.0,0.0,0.0,0.0,0.0,0.03278688524590164,0.06557377049180328,0.04918032786885246,0.01639344262295082,0.06557377049180328,0.0,0.0,0.06557377049180328,0.0,0.01639344262295082,0.06557377049180328
S7_D8 hbo,0.0,0.0,0.0,0.0,0.0,0.0,0.0,0.05952380952380952,0.0,0.0,0.0,0.07142857142857142,0.011904761904761904,0.0,0.0,0.03571428571428571,0.03571428571428571,0.0,0.07142857142857142,0.0,0.0,0.047619047619047616,0.05952380952380952,0.0,0.0,0.0,0.03571428571428571,0.05952380952380952,0.0,0.03571428571428571,0.0,0.0,0.07142857142857142,0.0,0.0,0.03571428571428571,0.0,0.0,0.0,0.0,0.0,0.03571428571428571,0.07142857142857142,0.047619047619047616,0.023809523809523808,0.07142857142857142,0.0,0.0,0.05952380952380952,0.0,0.011904761904761904,0.047619047619047616
S8_D6 hbo,0.0,0.0,0.0,0.0,0.0,0.0,0.0,0.0,0.0,0.0,0.0,0.0,0.0,0.0,0.0,0.0,0.0,0.0,0.0,0.0,0.0,0.0,0.0,0.0,0.0,0.0,0.0,0.0,0.0,0.0,0.0,0.0,0.0,0.0,0.0,0.0,0.0,0.0,0.0,0.0,0.0,0.0,0.0,0.0,0.0,0.0,0.0,0.0,0.0,0.0,0.0,0.0
S8_D8 hbo,0.0,0.0,0.0,0.0,0.0,0.0,0.0,0.0,0.0,0.0,0.0,0.0,0.0,0.0,0.0,0.0,0.0,0.0,0.0,0.0,0.0,0.0,0.0,0.0,0.0,0.0,0.0,0.0,0.0,0.0,0.0,0.0,0.0,0.0,0.0,0.0,0.0,0.0,0.0,0.0,0.0,0.0,0.0,0.0,0.0,0.0,0.0,0.0,0.0,0.0,0.0,0.0
S8_D15 hbo,0.0,0.0,0.0,0.0,0.0,0.0,0.0,0.0,0.0,0.0,0.0,0.0,0.0,0.0,0.0,0.0,0.0,0.0,0.0,0.0,0.0,0.0,0.0,0.0,0.0,0.0,0.0,0.0,0.0,0.0,0.0,0.0,0.0,0.0,0.0,0.0,0.0,0.0,0.0,0.0,0.0,0.0,0.0,0.0,0.0,0.0,0.0,0.0,0.0,0.0,0.0,0.0
S9_D2 hbo,0.0,0.0,0.0,0.0,0.0,0.0,0.0,0.05555555555555555,0.0,0.0,0.0,0.044444444444444446,0.03333333333333333,0.0,0.0,0.03333333333333333,0.03333333333333333,0.0,0.06666666666666667,0.0,0.0,0.044444444444444446,0.05555555555555555,0.0,0.0,0.0,0.05555555555555555,0.05555555555555555,0.0,0.03333333333333333,0.0,0.0,0.05555555555555555,0.0,0.0,0.05555555555555555,0.0,0.0,0.0,0.022222222222222223,0.0,0.05555555555555555,0.044444444444444446,0.044444444444444446,0.044444444444444446,0.044444444444444446,0.0,0.022222222222222223,0.05555555555555555,0.0,0.011111111111111112,0.03333333333333333
S9_D9 hbo,0.0,0.0,0.0,0.0,0.0,0.0,0.0,0.05952380952380952,0.0,0.0,0.0,0.07142857142857142,0.011904761904761904,0.0,0.0,0.03571428571428571,0.03571428571428571,0.0,0.07142857142857142,0.0,0.0,0.047619047619047616,0.05952380952380952,0.0,0.0,0.0,0.03571428571428571,0.05952380952380952,0.0,0.03571428571428571,0.0,0.0,0.07142857142857142,0.0,0.0,0.03571428571428571,0.0,0.0,0.0,0.0,0.0,0.03571428571428571,0.07142857142857142,0.047619047619047616,0.023809523809523808,0.07142857142857142,0.0,0.0,0.05952380952380952,0.0,0.011904761904761904,0.047619047619047616
S9_D11 hbo,0.0,0.0,0.0,0.0,0.0,0.0,0.0,0.0,0.0,0.0,0.0,0.0,0.0,0.0,0.0,0.0,0.0,0.0,0.0,0.0,0.0,0.0,0.0,0.0,0.0,0.0,0.0,0.0,0.0,0.0,0.0,0.0,0.0,0.0,0.0,0.0,0.0,0.0,0.0,0.0,0.0,0.0,0.0,0.0,0.0,0.0,0.0,0.0,0.0,0.0,0.0,0.0
S10_D9 hbo,0.0,0.0,0.0,0.0,0.0,0.0,0.0,0.07142857142857142,0.0,0.0,0.0,0.07142857142857142,0.0,0.0,0.0,0.023809523809523808,0.023809523809523808,0.0,0.07142857142857142,0.0,0.0,0.047619047619047616,0.07142857142857142,0.0,0.0,0.0,0.023809523809523808,0.07142857142857142,0.0,0.047619047619047616,0.0,0.0,0.07142857142857142,0.0,0.0,0.023809523809523808,0.0,0.0,0.0,0.0,0.0,0.023809523809523808,0.07142857142857142,0.047619047619047616,0.0,0.07142857142857142,0.0,0.0,0.07142857142857142,0.0,0.023809523809523808,0.07142857142857142
S10_D10 hbo,0.0,0.0,0.0,0.0,0.0,0.0,0.0,0.0,0.0,0.0,0.0,0.0,0.0,0.0,0.0,0.0,0.0,0.0,0.0,0.0,0.0,0.0,0.0,0.0,0.0,0.0,0.0,0.0,0.0,0.0,0.0,0.0,0.0,0.0,0.0,0.0,0.0,0.0,0.0,0.0,0.0,0.0,0.0,0.0,0.0,0.0,0.0,0.0,0.0,0.0,0.0,0.0
S10_D12 hbo,0.0,0.0,0.0,0.0,0.0,0.0,0.0,0.0,0.0,0.0,0.0,0.0,0.0,0.0,0.0,0.0,0.0,0.0,0.0,0.0,0.0,0.0,0.0,0.0,0.0,0.0,0.0,0.0,0.0,0.0,0.0,0.0,0.0,0.0,0.0,0.0,0.0,0.0,0.0,0.0,0.0,0.0,0.0,0.0,0.0,0.0,0.0,0.0,0.0,0.0,0.0,0.0
S11_D9 hbo,0.0,0.0,0.0,0.0,0.0,0.0,0.0,0.05952380952380952,0.0,0.0,0.0,0.07142857142857142,0.011904761904761904,0.0,0.0,0.03571428571428571,0.03571428571428571,0.0,0.07142857142857142,0.0,0.0,0.047619047619047616,0.05952380952380952,0.0,0.0,0.0,0.03571428571428571,0.05952380952380952,0.0,0.03571428571428571,0.0,0.0,0.07142857142857142,0.0,0.0,0.03571428571428571,0.0,0.0,0.0,0.0,0.0,0.03571428571428571,0.07142857142857142,0.047619047619047616,0.023809523809523808,0.07142857142857142,0.0,0.0,0.05952380952380952,0.0,0.011904761904761904,0.047619047619047616
S11_D11 hbo,0.0,0.0,0.0,0.0,0.0,0.0,0.0,0.0,0.0,0.0,0.0,0.0,0.0,0.0,0.0,0.0,0.0,0.0,0.0,0.0,0.0,0.0,0.0,0.0,0.0,0.0,0.0,0.0,0.0,0.0,0.0,0.0,0.0,0.0,0.0,0.0,0.0,0.0,0.0,0.0,0.0,0.0,0.0,0.0,0.0,0.0,0.0,0.0,0.0,0.0,0.0,0.0
S11_D12 hbo,0.0,0.0,0.0,0.0,0.0,0.0,0.0,0.0,0.0,0.0,0.0,0.0,0.0,0.0,0.0,0.0,0.0,0.0,0.0,0.0,0.0,0.0,0.0,0.0,0.0,0.0,0.0,0.0,0.0,0.0,0.0,0.0,0.0,0.0,0.0,0.0,0.0,0.0,0.0,0.0,0.0,0.0,0.0,0.0,0.0,0.0,0.0,0.0,0.0,0.0,0.0,0.0
S11_D13 hbo,0.0,0.0,0.0,0.0,0.0,0.0,0.0,0.06097560975609756,0.0,0.0,0.0,0.04878048780487805,0.024390243902439025,0.0,0.0,0.036585365853658534,0.036585365853658534,0.0,0.06097560975609756,0.0,0.0,0.04878048780487805,0.06097560975609756,0.0,0.0,0.0,0.04878048780487805,0.06097560975609756,0.0,0.036585365853658534,0.0,0.0,0.06097560975609756,0.0,0.0,0.04878048780487805,0.0,0.0,0.0,0.012195121951219513,0.0,0.04878048780487805,0.04878048780487805,0.04878048780487805,0.036585365853658534,0.04878048780487805,0.0,0.012195121951219513,0.06097560975609756,0.0,0.012195121951219513,0.036585365853658534
S12_D10 hbo,0.0,0.0,0.0,0.0,0.0,0.0,0.0,0.0,0.0,0.0,0.0,0.0,0.0,0.0,0.0,0.0,0.0,0.0,0.0,0.0,0.0,0.0,0.0,0.0,0.0,0.0,0.0,0.0,0.0,0.0,0.0,0.0,0.0,0.0,0.0,0.0,0.0,0.0,0.0,0.0,0.0,0.0,0.0,0.0,0.0,0.0,0.0,0.0,0.0,0.0,0.0,0.0
S12_D12 hbo,0.0,0.0,0.0,0.0,0.0,0.0,0.0,0.0,0.0,0.0,0.0,0.0,0.0,0.0,0.0,0.0,0.0,0.0,0.0,0.0,0.0,0.0,0.0,0.0,0.0,0.0,0.0,0.0,0.0,0.0,0.0,0.0,0.0,0.0,0.0,0.0,0.0,0.0,0.0,0.0,0.0,0.0,0.0,0.0,0.0,0.0,0.0,0.0,0.0,0.0,0.0,0.0
S12_D14 hbo,0.0,0.0,0.0,0.0,0.0,0.0,0.0,0.0,0.0,0.0,0.0,0.0,0.0,0.0,0.0,0.0,0.0,0.0,0.0,0.0,0.0,0.0,0.0,0.0,0.0,0.0,0.0,0.0,0.0,0.0,0.0,0.0,0.0,0.0,0.0,0.0,0.0,0.0,0.0,0.0,0.0,0.0,0.0,0.0,0.0,0.0,0.0,0.0,0.0,0.0,0.0,0.0
S13_D6 hbo,0.0,0.0,0.0,0.0,0.0,0.0,0.0,0.06451612903225806,0.0,0.0,0.0,0.03225806451612903,0.06451612903225806,0.0,0.0,0.03225806451612903,0.03225806451612903,0.0,0.06451612903225806,0.0,0.0,0.03225806451612903,0.06451612903225806,0.0,0.0,0.0,0.06451612903225806,0.06451612903225806,0.0,0.0,0.0,0.0,0.06451612903225806,0.0,0.0,0.06451612903225806,0.0,0.0,0.0,0.03225806451612903,0.0,0.06451612903225806,0.03225806451612903,0.03225806451612903,0.06451612903225806,0.03225806451612903,0.0,0.03225806451612903,0.06451612903225806,0.0,0.0,0.0
S13_D11 hbo,0.0,0.0,0.0,0.0,0.0,0.0,0.0,0.0,0.0,0.0,0.0,0.0,0.0,0.0,0.0,0.0,0.0,0.0,0.0,0.0,0.0,0.0,0.0,0.0,0.0,0.0,0.0,0.0,0.0,0.0,0.0,0.0,0.0,0.0,0.0,0.0,0.0,0.0,0.0,0.0,0.0,0.0,0.0,0.0,0.0,0.0,0.0,0.0,0.0,0.0,0.0,0.0
S13_D13 hbo,0.0,0.0,0.0,0.0,0.0,0.0,0.0,0.05555555555555555,0.0,0.0,0.0,0.044444444444444446,0.03333333333333333,0.0,0.0,0.03333333333333333,0.03333333333333333,0.0,0.06666666666666667,0.0,0.0,0.044444444444444446,0.05555555555555555,0.0,0.0,0.0,0.05555555555555555,0.05555555555555555,0.0,0.03333333333333333,0.0,0.0,0.05555555555555555,0.0,0.0,0.05555555555555555,0.0,0.0,0.0,0.022222222222222223,0.0,0.05555555555555555,0.044444444444444446,0.044444444444444446,0.044444444444444446,0.044444444444444446,0.0,0.022222222222222223,0.05555555555555555,0.0,0.011111111111111112,0.03333333333333333
S13_D15 hbo,0.0,0.0,0.0,0.0,0.0,0.0,0.0,0.06060606060606061,0.0,0.0,0.0,0.07575757575757576,0.0,0.0,0.0,0.030303030303030304,0.030303030303030304,0.0,0.07575757575757576,0.0,0.0,0.045454545454545456,0.06060606060606061,0.0,0.0,0.0,0.030303030303030304,0.06060606060606061,0.0,0.045454545454545456,0.0,0.0,0.07575757575757576,0.0,0.0,0.030303030303030304,0.0,0.0,0.0,0.0,0.0,0.030303030303030304,0.07575757575757576,0.045454545454545456,0.015151515151515152,0.07575757575757576,0.0,0.0,0.06060606060606061,0.0,0.015151515151515152,0.06060606060606061
S14_D12 hbo,0.0,0.0,0.0,0.0,0.0,0.0,0.0,0.06557377049180328,0.0,0.0,0.0,0.06557377049180328,0.0,0.0,0.0,0.03278688524590164,0.03278688524590164,0.0,0.06557377049180328,0.0,0.0,0.04918032786885246,0.06557377049180328,0.0,0.0,0.0,0.03278688524590164,0.06557377049180328,0.0,0.04918032786885246,0.0,0.0,0.06557377049180328,0.0,0.0,0.03278688524590164,0.0,0.0,0.0,0.0,0.0,0.03278688524590164,0.06557377049180328,0.04918032786885246,0.01639344262295082,0.06557377049180328,0.0,0.0,0.06557377049180328,0.0,0.01639344262295082,0.06557377049180328
S14_D13 hbo,0.0,0.0,0.0,0.0,0.0,0.0,0.0,0.05194805194805195,0.0,0.0,0.0,0.03896103896103896,0.03896103896103896,0.0,0.0,0.03896103896103896,0.03896103896103896,0.0,0.06493506493506493,0.0,0.0,0.03896103896103896,0.05194805194805195,0.0,0.0,0.0,0.06493506493506493,0.05194805194805195,0.0,0.025974025974025976,0.0,0.0,0.05194805194805195,0.0,0.0,0.06493506493506493,0.0,0.0,0.0,0.025974025974025976,0.0,0.06493506493506493,0.03896103896103896,0.03896103896103896,0.05194805194805195,0.03896103896103896,0.0,0.025974025974025976,0.05194805194805195,0.0,0.012987012987012988,0.025974025974025976
S14_D14 hbo,0.0,0.0,0.0,0.0,0.0,0.0,0.0,0.06060606060606061,0.0,0.0,0.0,0.07575757575757576,0.0,0.0,0.0,0.030303030303030304,0.030303030303030304,0.0,0.07575757575757576,0.0,0.0,0.045454545454545456,0.06060606060606061,0.0,0.0,0.0,0.030303030303030304,0.06060606060606061,0.0,0.045454545454545456,0.0,0.0,0.07575757575757576,0.0,0.0,0.030303030303030304,0.0,0.0,0.0,0.0,0.0,0.030303030303030304,0.07575757575757576,0.045454545454545456,0.015151515151515152,0.07575757575757576,0.0,0.0,0.06060606060606061,0.0,0.015151515151515152,0.06060606060606061
S14_D16 hbo,0.0,0.0,0.0,0.0,0.0,0.0,0.0,0.0,0.0,0.0,0.0,0.0,0.0,0.0,0.0,0.0,0.0,0.0,0.0,0.0,0.0,0.0,0.0,0.0,0.0,0.0,0.0,0.0,0.0,0.0,0.0,0.0,0.0,0.0,0.0,0.0,0.0,0.0,0.0,0.0,0.0,0.0,0.0,0.0,0.0,0.0,0.0,0.0,0.0,0.0,0.0,0.0
S15_D13 hbo,0.0,0.0,0.0,0.0,0.0,0.0,0.0,0.045454545454545456,0.0,0.0,0.0,0.022727272727272728,0.09090909090909091,0.0,0.0,0.022727272727272728,0.022727272727272728,0.0,0.06818181818181818,0.0,0.0,0.022727272727272728,0.045454545454545456,0.0,0.0,0.0,0.09090909090909091,0.045454545454545456,0.0,0.0,0.0,0.0,0.045454545454545456,0.0,0.0,0.06818181818181818,0.0,0.0,0.0,0.045454545454545456,0.0,0.09090909090909091,0.022727272727272728,0.022727272727272728,0.09090909090909091,0.022727272727272728,0.0,0.06818181818181818,0.045454545454545456,0.0,0.0,0.0
S15_D15 hbo,0.0,0.0,0.0,0.0,0.0,0.0,0.0,0.05952380952380952,0.0,0.0,0.0,0.07142857142857142,0.011904761904761904,0.0,0.0,0.03571428571428571,0.03571428571428571,0.0,0.07142857142857142,0.0,0.0,0.047619047619047616,0.05952380952380952,0.0,0.0,0.0,0.03571428571428571,0.05952380952380952,0.0,0.03571428571428571,0.0,0.0,0.07142857142857142,0.0,0.0,0.03571428571428571,0.0,0.0,0.0,0.0,0.0,0.03571428571428571,0.07142857142857142,0.047619047619047616,0.023809523809523808,0.07142857142857142,0.0,0.0,0.05952380952380952,0.0,0.011904761904761904,0.047619047619047616
S15_D16 hbo,0.0,0.0,0.0,0.0,0.0,0.0,0.0,0.0,0.0,0.0,0.0,0.0,0.0,0.0,0.0,0.0,0.0,0.0,0.0,0.0,0.0,0.0,0.0,0.0,0.0,0.0,0.0,0.0,0.0,0.0,0.0,0.0,0.0,0.0,0.0,0.0,0.0,0.0,0.0,0.0,0.0,0.0,0.0,0.0,0.0,0.0,0.0,0.0,0.0,0.0,0.0,0.0
S16_D14 hbo,0.0,0.0,0.0,0.0,0.0,0.0,0.0,0.07692307692307693,0.0,0.0,0.0,0.07692307692307693,0.0,0.0,0.0,0.0,0.0,0.0,0.07692307692307693,0.0,0.0,0.07692307692307693,0.07692307692307693,0.0,0.0,0.0,0.0,0.07692307692307693,0.0,0.07692307692307693,0.0,0.0,0.07692307692307693,0.0,0.0,0.0,0.0,0.0,0.0,0.0,0.0,0.0,0.07692307692307693,0.07692307692307693,0.0,0.07692307692307693,0.0,0.0,0.07692307692307693,0.0,0.0,0.07692307692307693
S16_D16 hbo,0.0,0.0,0.0,0.0,0.0,0.0,0.0,0.06382978723404255,0.0,0.0,0.0,0.0851063829787234,0.0,0.0,0.0,0.02127659574468085,0.02127659574468085,0.0,0.0851063829787234,0.0,0.0,0.0425531914893617,0.06382978723404255,0.0,0.0,0.0,0.02127659574468085,0.06382978723404255,0.0,0.0425531914893617,0.0,0.0,0.0851063829787234,0.0,0.0,0.02127659574468085,0.0,0.0,0.0,0.0,0.0,0.02127659574468085,0.0851063829787234,0.0425531914893617,0.0,0.0851063829787234,0.0,0.0,0.06382978723404255,0.0,0.02127659574468085,0.06382978723404255
