,S1_D1 hbo,S1_D3 hbo,S2_D1 hbo,S2_D2 hbo,S2_D4 hbo,S3_D1 hbo,S3_D3 hbo,S3_D4 hbo,S3_D5 hbo,S4_D2 hbo,S4_D4 hbo,S4_D6 hbo,S4_D11 hbo,S5_D3 hbo,S5_D5 hbo,S5_D7 hbo,S6_D4 hbo,S6_D5 hbo,S6_D6 hbo,S6_D8 hbo,S7_D5 hbo,S7_D7 hbo,S7_D8 hbo,S8_D6 hbo,S8_D8 hbo,S8_D15 hbo,S9_D2 hbo,S9_D9 hbo,S9_D11 hbo,S10_D9 hbo,S10_D10 hbo,S10_D12 hbo,S11_D9 hbo,S11_D11 hbo,S11_D12 hbo,S11_D13 hbo,S12_D10 hbo,S12_D12 hbo,S12_D14 hbo,S13_D6 hbo,S13_D11 hbo,S13_D13 hbo,S13_D15 hbo,S14_D12 hbo,S14_D13 hbo,S14_D14 hbo,S14_D16 hbo,S15_D13 hbo,S15_D15 hbo,S15_D16 hbo,S16_D14 hbo,S16_D16 hbo
S1_D1 hbo,0.0,0.0,0.0,0.0,0.0,0.0,0.0,0.0,0.0,0.0,0.0,0.0,0.0,0.0,0.0,0.0,0.0,0.0,0.0,0.0,0.0,0.0,0.0,0.0,0.0,0.0,0.0,0.0,0.0,0.0,0.0,0.0,0.0,0.0,0.0,0.0,0.0,0.0,0.0,0.0,0.0,0.0,0.0,0.0,0.0,0.0,0.0,0.0,0.0,0.0,0.0,0.0
S1_D3 hbo,0.0,0.0,0.0,0.0,0.0,0.0,0.0,0.0,0.0,0.0,0.0,0.0,0.0,0.0,0.0,0.0,0.0,0.0,0.0,0.0,0.0,0.0,0.0,0.0,0.0,0.0,0.0,0.0,0.0,0.0,0.0,0.0,0.0,0.0,0.0,0.0,0.0,0.0,0.0,0.0,0.0,0.0,0.0,0.0,0.0,0.0,0.0,0.0,0.0,0.0,0.0,0.0
S2_D1 hbo,0.0,0.0,0.04149377593360996,0.03319502074688797,0.0,0.0,0.0,0.04564315352697095,0.0,0.03734439834024896,0.0,0.04564315352697095,0.03319502074688797,0.0,0.0,0.0,0.0,0.0,0.04564315352697095,0.02074688796680498,0.04564315352697095,0.0,0.012448132780082987,0.0,0.04564315352697095,0.016597510373443983,0.04564315352697095,0.04564315352697095,0.0,0.03319502074688797,0.0,0.03319502074688797,0.029045643153526972,0.016597510373443983,0.03734439834024896,0.04564315352697095,0.0,0.0,0.04564315352697095,0.029045643153526972,0.0,0.012448132780082987,0.04564315352697095,0.029045643153526972,0.024896265560165973,0.04564315352697095,0.016597510373443983,0.0,0.0,0.016597510373443983,0.012448132780082987,0.012448132780082987
S2_D2 hbo,0.0,0.0,0.04245283018867924,0.03773584905660377,0.0,0.0,0.0,0.04245283018867924,0.0,0.04245283018867924,0.0,0.04245283018867924,0.03773584905660377,0.0,0.0,0.0,0.0,0.0,0.04245283018867924,0.014150943396226415,0.04245283018867924,0.0,0.0047169811320754715,0.0,0.04245283018867924,0.009433962264150943,0.04245283018867924,0.04245283018867924,0.0,0.03773584905660377,0.0,0.03773584905660377,0.0330188679245283,0.018867924528301886,0.04245283018867924,0.04245283018867924,0.0,0.0,0.04245283018867924,0.0330188679245283,0.0,0.014150943396226415,0.04245283018867924,0.0330188679245283,0.02830188679245283,0.04245283018867924,0.018867924528301886,0.0,0.0,0.018867924528301886,0.014150943396226415,0.014150943396226415
S2_D4 hbo,0.0,0.0,0.0,0.0,0.0,0.0,0.0,0.0,0.0,0.0,0.0,0.0,0.0,0.0,0.0,0.0,0.0,0.0,0.0,0.0,0.0,0.0,0.0,0.0,0.0,0.0,0.0,0.0,0.0,0.0,0.0,0.0,0.0,0.0,0.0,0.0,0.0,0.0,0.0,0.0,0.0,0.0,0.0,0.0,0.0,0.0,0.0,0.0,0.0,0.0,0.0,0.0
S3_D1 hbo,0.0,0.0,0.0,0.0,0.0,0.0,0.0,0.0,0.0,0.0,0.0,0.0,0.0,0.0,0.0,0.0,0.0,0.0,0.0,0.0,0.0,0.0,0.0,0.0,0.0,0.0,0.0,0.0,0.0,0.0,0.0,0.0,0.0,0.0,0.0,0.0,0.0,0.0,0.0,0.0,0.0,0.0,0.0,0.0,0.0,0.0,0.0,0.0,0.0,0.0,0.0,0.0
S3_D3 hbo,0.0,0.0,0.0,0.0,0.0,0.0,0.0,0.0,0.0,0.0,0.0,0.0,0.0,0.0,0.0,0.0,0.0,0.0,0.0,0.0,0.0,0.0,0.0,0.0,0.0,0.0,0.0,0.0,0.0,0.0,0.0,0.0,0.0,0.0,0.0,0.0,0.0,0.0,0.0,0.0,0.0,0.0,0.0,0.0,0.0,0.0,0.0,0.0,0.0,0.0,0.0,0.0
S3_D4 hbo,0.0,0.0,0.03355704697986577,0.026845637583892617,0.0,0.0,0.0,0.053691275167785234,0.0,0.030201342281879196,0.0,0.040268456375838924,0.026845637583892617,0.0,0.0,0.0,0.0,0.0,0.05704697986577181,0.03691275167785235,0.050335570469798654,0.0,0.030201342281879196,0.0,0.05704697986577181,0.03355704697986577,0.05704697986577181,0.04697986577181208,0.0,0.026845637583892617,0.0,0.026845637583892617,0.02348993288590604,0.013422818791946308,0.030201342281879196,0.040268456375838924,0.0,0.0,0.040268456375838924,0.02348993288590604,0.0,0.010067114093959731,0.053691275167785234,0.02348993288590604,0.020134228187919462,0.040268456375838924,0.013422818791946308,0.0,0.0,0.013422818791946308,0.010067114093959731,0.010067114093959731
S3_D5 hbo,0.0,0.0,0.0,0.0,0.0,0.0,0.0,0.0,0.0,0.0,0.0,0.0,0.0,0.0,0.0,0.0,0.0,0.0,0.0,0.0,0.0,0.0,0.0,0.0,0.0,0.0,0.0,0.0,0.0,0.0,0.0,0.0,0.0,0.0,0.0,0.0,0.0,0.0,0.0,0.0,0.0,0.0,0.0,0.0,0.0,0.0,0.0,0.0,0.0,0.0,0.0,0.0
S4_D2 hbo,0.0,0.0,0.04405286343612335,0.03524229074889868,0.0,0.0,0.0,0.04405286343612335,0.0,0.039647577092511016,0.0,0.04405286343612335,0.03524229074889868,0.0,0.0,0.0,0.0,0.0,0.04405286343612335,0.01762114537444934,0.04405286343612335,0.0,0.00881057268722467,0.0,0.04405286343612335,0.013215859030837005,0.04405286343612335,0.04405286343612335,0.0,0.03524229074889868,0.0,0.03524229074889868,0.030837004405286344,0.01762114537444934,0.039647577092511016,0.04405286343612335,0.0,0.0,0.04405286343612335,0.030837004405286344,0.0,0.013215859030837005,0.04405286343612335,0.030837004405286344,0.02643171806167401,0.04405286343612335,0.01762114537444934,0.0,0.0,0.01762114537444934,0.013215859030837005,0.013215859030837005
S4_D4 hbo,0.0,0.0,0.0,0.0,0.0,0.0,0.0,0.0,0.0,0.0,0.0,0.0,0.0,0.0,0.0,0.0,0.0,0.0,0.0,0.0,0.0,0.0,0.0,0.0,0.0,0.0,0.0,0.0,0.0,0.0,0.0,0.0,0.0,0.0,0.0,0.0,0.0,0.0,0.0,0.0,0.0,0.0,0.0,0.0,0.0,0.0,0.0,0.0,0.0,0.0,0.0,0.0
S4_D6 hbo,0.0,0.0,0.03773584905660377,0.03018867924528302,0.0,0.0,0.0,0.04905660377358491,0.0,0.033962264150943396,0.0,0.045283018867924525,0.03018867924528302,0.0,0.0,0.0,0.0,0.0,0.04905660377358491,0.026415094339622643,0.04905660377358491,0.0,0.018867924528301886,0.0,0.04905660377358491,0.022641509433962263,0.04905660377358491,0.04905660377358491,0.0,0.03018867924528302,0.0,0.03018867924528302,0.026415094339622643,0.01509433962264151,0.033962264150943396,0.045283018867924525,0.0,0.0,0.045283018867924525,0.026415094339622643,0.0,0.011320754716981131,0.04905660377358491,0.026415094339622643,0.022641509433962263,0.045283018867924525,0.01509433962264151,0.0,0.0,0.01509433962264151,0.011320754716981131,0.011320754716981131
S4_D11 hbo,0.0,0.0,0.04245283018867924,0.03773584905660377,0.0,0.0,0.0,0.04245283018867924,0.0,0.04245283018867924,0.0,0.04245283018867924,0.03773584905660377,0.0,0.0,0.0,0.0,0.0,0.04245283018867924,0.014150943396226415,0.04245283018867924,0.0,0.0047169811320754715,0.0,0.04245283018867924,0.009433962264150943,0.04245283018867924,0.04245283018867924,0.0,0.03773584905660377,0.0,0.03773584905660377,0.0330188679245283,0.018867924528301886,0.04245283018867924,0.04245283018867924,0.0,0.0,0.04245283018867924,0.0330188679245283,0.0,0.014150943396226415,0.04245283018867924,0.0330188679245283,0.02830188679245283,0.04245283018867924,0.018867924528301886,0.0,0.0,0.018867924528301886,0.014150943396226415,0.014150943396226415
S5_D3 hbo,0.0,0.0,0.0,0.0,0.0,0.0,0.0,0.0,0.0,0.0,0.0,0.0,0.0,0.0,0.0,0.0,0.0,0.0,0.0,0.0,0.0,0.0,0.0,0.0,0.0,0.0,0.0,0.0,0.0,0.0,0.0,0.0,0.0,0.0,0.0,0.0,0.0,0.0,0.0,0.0,0.0,0.0,0.0,0.0,0.0,0.0,0.0,0.0,0.0,0.0,0.0,0.0
S5_D5 hbo,0.0,0.0,0.0,0.0,0.0,0.0,0.0,0.0,0.0,0.0,0.0,0.0,0.0,0.0,0.0,0.0,0.0,0.0,0.0,0.0,0.0,0.0,0.0,0.0,0.0,0.0,0.0,0.0,0.0,0.0,0.0,0.0,0.0,0.0,0.0,0.0,0.0,0.0,0.0,0.0,0.0,0.0,0.0,0.0,0.0,0.0,0.0,0.0,0.0,0.0,0.0,0.0
S5_D7 hbo,0.0,0.0,0.0,0.0,0.0,0.0,0.0,0.0,0.0,0.0,0.0,0.0,0.0,0.0,0.0,0.0,0.0,0.0,0.0,0.0,0.0,0.0,0.0,0.0,0.0,0.0,0.0,0.0,0.0,0.0,0.0,0.0,0.0,0.0,0.0,0.0,0.0,0.0,0.0,0.0,0.0,0.0,0.0,0.0,0.0,0.0,0.0,0.0,0.0,0.0,0.0,0.0
S6_D4 hbo,0.0,0.0,0.0,0.0,0.0,0.0,0.0,0.0,0.0,0.0,0.0,0.0,0.0,0.0,0.0,0.0,0.0,0.0,0.0,0.0,0.0,0.0,0.0,0.0,0.0,0.0,0.0,0.0,0.0,0.0,0.0,0.0,0.0,0.0,0.0,0.0,0.0,0.0,0.0,0.0,0.0,0.0,0.0,0.0,0.0,0.0,0.0,0.0,0.0,0.0,0.0,0.0
S6_D5 hbo,0.0,0.0,0.0,0.0,0.0,0.0,0.0,0.0,0.0,0.0,0.0,0.0,0.0,0.0,0.0,0.0,0.0,0.0,0.0,0.0,0.0,0.0,0.0,0.0,0.0,0.0,0.0,0.0,0.0,0.0,0.0,0.0,0.0,0.0,0.0,0.0,0.0,0.0,0.0,0.0,0.0,0.0,0.0,0.0,0.0,0.0,0.0,0.0,0.0,0.0,0.0,0.0
S6_D6 hbo,0.0,0.0,0.03067484662576687,0.024539877300613498,0.0,0.0,0.0,0.049079754601226995,0.0,0.027607361963190184,0.0,0.03680981595092025,0.024539877300613498,0.0,0.0,0.0,0.0,0.0,0.06441717791411043,0.049079754601226995,0.046012269938650305,0.0,0.04294478527607362,0.0,0.06748466257668712,0.04294478527607362,0.06748466257668712,0.04294478527607362,0.0,0.024539877300613498,0.0,0.024539877300613498,0.02147239263803681,0.012269938650306749,0.027607361963190184,0.03680981595092025,0.0,0.0,0.03680981595092025,0.02147239263803681,0.0,0.009202453987730062,0.049079754601226995,0.02147239263803681,0.018404907975460124,0.03680981595092025,0.012269938650306749,0.0,0.0,0.012269938650306749,0.009202453987730062,0.009202453987730062
S6_D8 hbo,0.0,0.0,0.018404907975460124,0.006134969325153374,0.0,0.0,0.0,0.05521472392638037,0.0,0.012269938650306749,0.0,0.03067484662576687,0.006134969325153374,0.0,0.0,0.0,0.0,0.0,0.08588957055214724,0.12883435582822086,0.049079754601226995,0.0,0.09202453987730061,0.0,0.1165644171779141,0.08588957055214724,0.09815950920245399,0.04294478527607362,0.0,0.006134969325153374,0.0,0.006134969325153374,0.0,0.0,0.012269938650306749,0.03067484662576687,0.0,0.0,0.03067484662576687,0.0,0.0,0.0,0.05521472392638037,0.0,0.0,0.03067484662576687,0.0,0.0,0.0,0.0,0.0,0.0
S7_D5 hbo,0.0,0.0,0.03424657534246575,0.0273972602739726,0.0,0.0,0.0,0.0547945205479452,0.0,0.030821917808219176,0.0,0.0410958904109589,0.0273972602739726,0.0,0.0,0.0,0.0,0.0,0.0547945205479452,0.03424657534246575,0.05136986301369863,0.0,0.0273972602739726,0.0,0.0547945205479452,0.030821917808219176,0.0547945205479452,0.04794520547945205,0.0,0.0273972602739726,0.0,0.0273972602739726,0.023972602739726026,0.0136986301369863,0.030821917808219176,0.0410958904109589,0.0,0.0,0.0410958904109589,0.023972602739726026,0.0,0.010273972602739725,0.0547945205479452,0.023972602739726026,0.02054794520547945,0.0410958904109589,0.0136986301369863,0.0,0.0,0.0136986301369863,0.010273972602739725,0.010273972602739725
S7_D7 hbo,0.0,0.0,0.0,0.0,0.0,0.0,0.0,0.0,0.0,0.0,0.0,0.0,0.0,0.0,0.0,0.0,0.0,0.0,0.0,0.0,0.0,0.0,0.0,0.0,0.0,0.0,0.0,0.0,0.0,0.0,0.0,0.0,0.0,0.0,0.0,0.0,0.0,0.0,0.0,0.0,0.0,0.0,0.0,0.0,0.0,0.0,0.0,0.0,0.0,0.0,0.0,0.0
S7_D8 hbo,0.0,0.0,0.008333333333333333,0.0,0.0,0.0,0.0,0.058333333333333334,0.0,0.0,0.0,0.025,0.0,0.0,0.0,0.0,0.0,0.0,0.1,0.125,0.05,0.0,0.11666666666666667,0.0,0.125,0.1,0.11666666666666667,0.041666666666666664,0.0,0.0,0.0,0.0,0.0,0.0,0.0,0.025,0.0,0.0,0.025,0.0,0.0,0.0,0.058333333333333334,0.0,0.0,0.025,0.0,0.0,0.0,0.0,0.0,0.0
S8_D6 hbo,0.0,0.0,0.0,0.0,0.0,0.0,0.0,0.0,0.0,0.0,0.0,0.0,0.0,0.0,0.0,0.0,0.0,0.0,0.0,0.0,0.0,0.0,0.0,0.0,0.0,0.0,0.0,0.0,0.0,0.0,0.0,0.0,0.0,0.0,0.0,0.0,0.0,0.0,0.0,0.0,0.0,0.0,0.0,0.0,0.0,0.0,0.0,0.0,0.0,0.0,0.0,0.0
S8_D8 hbo,0.0,0.0,0.02967359050445104,0.02373887240356083,0.0,0.0,0.0,0.04747774480712166,0.0,0.026706231454005934,0.0,0.03560830860534125,0.02373887240356083,0.0,0.0,0.0,0.0,0.0,0.06231454005934718,0.06231454005934718,0.04451038575667656,0.0,0.04451038575667656,0.0,0.0771513353115727,0.04154302670623145,0.06824925816023739,0.04154302670623145,0.0,0.02373887240356083,0.0,0.02373887240356083,0.020771513353115726,0.011869436201780416,0.026706231454005934,0.03560830860534125,0.0,0.0,0.03560830860534125,0.020771513353115726,0.0,0.008902077151335312,0.04747774480712166,0.020771513353115726,0.017804154302670624,0.03560830860534125,0.011869436201780416,0.0,0.0,0.011869436201780416,0.008902077151335312,0.008902077151335312
S8_D15 hbo,0.0,0.0,0.015267175572519083,0.0,0.0,0.0,0.0,0.061068702290076333,0.0,0.007633587786259542,0.0,0.030534351145038167,0.0,0.0,0.0,0.0,0.0,0.0,0.09923664122137404,0.10687022900763359,0.05343511450381679,0.0,0.10687022900763359,0.0,0.10687022900763359,0.09923664122137404,0.10687022900763359,0.04580152671755725,0.0,0.0,0.0,0.0,0.0,0.0,0.007633587786259542,0.030534351145038167,0.0,0.0,0.030534351145038167,0.0,0.0,0.0,0.061068702290076333,0.0,0.0,0.030534351145038167,0.0,0.0,0.0,0.0,0.0,0.0
S9_D2 hbo,0.0,0.0,0.030120481927710843,0.024096385542168676,0.0,0.0,0.0,0.04819277108433735,0.0,0.02710843373493976,0.0,0.03614457831325301,0.024096385542168676,0.0,0.0,0.0,0.0,0.0,0.06325301204819277,0.05421686746987952,0.045180722891566265,0.0,0.045180722891566265,0.0,0.07228915662650602,0.04216867469879518,0.06927710843373494,0.04216867469879518,0.0,0.024096385542168676,0.0,0.024096385542168676,0.02108433734939759,0.012048192771084338,0.02710843373493976,0.03614457831325301,0.0,0.0,0.03614457831325301,0.02108433734939759,0.0,0.009036144578313253,0.04819277108433735,0.02108433734939759,0.018072289156626505,0.03614457831325301,0.012048192771084338,0.0,0.0,0.012048192771084338,0.009036144578313253,0.009036144578313253
S9_D9 hbo,0.0,0.0,0.035211267605633804,0.028169014084507043,0.0,0.0,0.0,0.0528169014084507,0.0,0.03169014084507042,0.0,0.04225352112676056,0.028169014084507043,0.0,0.0,0.0,0.0,0.0,0.0528169014084507,0.03169014084507042,0.0528169014084507,0.0,0.02464788732394366,0.0,0.0528169014084507,0.028169014084507043,0.0528169014084507,0.04929577464788732,0.0,0.028169014084507043,0.0,0.028169014084507043,0.02464788732394366,0.014084507042253521,0.03169014084507042,0.04225352112676056,0.0,0.0,0.04225352112676056,0.02464788732394366,0.0,0.01056338028169014,0.0528169014084507,0.02464788732394366,0.02112676056338028,0.04225352112676056,0.014084507042253521,0.0,0.0,0.014084507042253521,0.01056338028169014,0.01056338028169014
S9_D11 hbo,0.0,0.0,0.0,0.0,0.0,0.0,0.0,0.0,0.0,0.0,0.0,0.0,0.0,0.0,0.0,0.0,0.0,0.0,0.0,0.0,0.0,0.0,0.0,0.0,0.0,0.0,0.0,0.0,0.0,0.0,0.0,0.0,0.0,0.0,0.0,0.0,0.0,0.0,0.0,0.0,0.0,0.0,0.0,0.0,0.0,0.0,0.0,0.0,0.0,0.0,0.0,0.0
S10_D9 hbo,0.0,0.0,0.04245283018867924,0.03773584905660377,0.0,0.0,0.0,0.04245283018867924,0.0,0.04245283018867924,0.0,0.04245283018867924,0.03773584905660377,0.0,0.0,0.0,0.0,0.0,0.04245283018867924,0.014150943396226415,0.04245283018867924,0.0,0.0047169811320754715,0.0,0.04245283018867924,0.009433962264150943,0.04245283018867924,0.04245283018867924,0.0,0.03773584905660377,0.0,0.03773584905660377,0.0330188679245283,0.018867924528301886,0.04245283018867924,0.04245283018867924,0.0,0.0,0.04245283018867924,0.0330188679245283,0.0,0.014150943396226415,0.04245283018867924,0.0330188679245283,0.02830188679245283,0.04245283018867924,0.018867924528301886,0.0,0.0,0.018867924528301886,0.014150943396226415,0.014150943396226415
S10_D10 hbo,0.0,0.0,0.0,0.0,0.0,0.0,0.0,0.0,0.0,0.0,0.0,0.0,0.0,0.0,0.0,0.0,0.0,0.0,0.0,0.0,0.0,0.0,0.0,0.0,0.0,0.0,0.0,0.0,0.0,0.0,0.0,0.0,0.0,0.0,0.0,0.0,0.0,0.0,0.0,0.0,0.0,0.0,0.0,0.0,0.0,0.0,0.0,0.0,0.0,0.0,0.0,0.0
S10_D12 hbo,0.0,0.0,0.04245283018867924,0.03773584905660377,0.0,0.0,0.0,0.04245283018867924,0.0,0.04245283018867924,0.0,0.04245283018867924,0.03773584905660377,0.0,0.0,0.0,0.0,0.0,0.04245283018867924,0.014150943396226415,0.04245283018867924,0.0,0.0047169811320754715,0.0,0.04245283018867924,0.009433962264150943,0.04245283018867924,0.04245283018867924,0.0,0.03773584905660377,0.0,0.03773584905660377,0.0330188679245283,0.018867924528301886,0.04245283018867924,0.04245283018867924,0.0,0.0,0.04245283018867924,0.0330188679245283,0.0,0.014150943396226415,0.04245283018867924,0.0330188679245283,0.02830188679245283,0.04245283018867924,0.018867924528301886,0.0,0.0,0.018867924528301886,0.014150943396226415,0.014150943396226415
S11_D9 hbo,0.0,0.0,0.041025641025641026,0.041025641025641026,0.0,0.0,0.0,0.041025641025641026,0.0,0.041025641025641026,0.0,0.041025641025641026,0.041025641025641026,0.0,0.0,0.0,0.0,0.0,0.041025641025641026,0.010256410256410256,0.041025641025641026,0.0,0.0,0.0,0.041025641025641026,0.005128205128205128,0.041025641025641026,0.041025641025641026,0.0,0.041025641025641026,0.0,0.041025641025641026,0.035897435897435895,0.020512820512820513,0.041025641025641026,0.041025641025641026,0.0,0.0,0.041025641025641026,0.035897435897435895,0.0,0.015384615384615385,0.041025641025641026,0.035897435897435895,0.03076923076923077,0.041025641025641026,0.020512820512820513,0.0,0.0,0.020512820512820513,0.015384615384615385,0.015384615384615385
S11_D11 hbo,0.0,0.0,0.03816793893129771,0.03816793893129771,0.0,0.0,0.0,0.03816793893129771,0.0,0.03816793893129771,0.0,0.03816793893129771,0.03816793893129771,0.0,0.0,0.0,0.0,0.0,0.03816793893129771,0.0,0.03816793893129771,0.0,0.0,0.0,0.03816793893129771,0.0,0.03816793893129771,0.03816793893129771,0.0,0.03816793893129771,0.0,0.03816793893129771,0.03816793893129771,0.030534351145038167,0.03816793893129771,0.03816793893129771,0.0,0.0,0.03816793893129771,0.03816793893129771,0.0,0.022900763358778626,0.03816793893129771,0.03816793893129771,0.03816793893129771,0.03816793893129771,0.030534351145038167,0.0,0.0,0.030534351145038167,0.022900763358778626,0.022900763358778626
S11_D12 hbo,0.0,0.0,0.04405286343612335,0.03524229074889868,0.0,0.0,0.0,0.04405286343612335,0.0,0.039647577092511016,0.0,0.04405286343612335,0.03524229074889868,0.0,0.0,0.0,0.0,0.0,0.04405286343612335,0.01762114537444934,0.04405286343612335,0.0,0.00881057268722467,0.0,0.04405286343612335,0.013215859030837005,0.04405286343612335,0.04405286343612335,0.0,0.03524229074889868,0.0,0.03524229074889868,0.030837004405286344,0.01762114537444934,0.039647577092511016,0.04405286343612335,0.0,0.0,0.04405286343612335,0.030837004405286344,0.0,0.013215859030837005,0.04405286343612335,0.030837004405286344,0.02643171806167401,0.04405286343612335,0.01762114537444934,0.0,0.0,0.01762114537444934,0.013215859030837005,0.013215859030837005
S11_D13 hbo,0.0,0.0,0.03773584905660377,0.03018867924528302,0.0,0.0,0.0,0.04905660377358491,0.0,0.033962264150943396,0.0,0.045283018867924525,0.03018867924528302,0.0,0.0,0.0,0.0,0.0,0.04905660377358491,0.026415094339622643,0.04905660377358491,0.0,0.018867924528301886,0.0,0.04905660377358491,0.022641509433962263,0.04905660377358491,0.04905660377358491,0.0,0.03018867924528302,0.0,0.03018867924528302,0.026415094339622643,0.01509433962264151,0.033962264150943396,0.045283018867924525,0.0,0.0,0.045283018867924525,0.026415094339622643,0.0,0.011320754716981131,0.04905660377358491,0.026415094339622643,0.022641509433962263,0.045283018867924525,0.01509433962264151,0.0,0.0,0.01509433962264151,0.011320754716981131,0.011320754716981131
S12_D10 hbo,0.0,0.0,0.0,0.0,0.0,0.0,0.0,0.0,0.0,0.0,0.0,0.0,0.0,0.0,0.0,0.0,0.0,0.0,0.0,0.0,0.0,0.0,0.0,0.0,0.0,0.0,0.0,0.0,0.0,0.0,0.0,0.0,0.0,0.0,0.0,0.0,0.0,0.0,0.0,0.0,0.0,0.0,0.0,0.0,0.0,0.0,0.0,0.0,0.0,0.0,0.0,0.0
S12_D12 hbo,0.0,0.0,0.0,0.0,0.0,0.0,0.0,0.0,0.0,0.0,0.0,0.0,0.0,0.0,0.0,0.0,0.0,0.0,0.0,0.0,0.0,0.0,0.0,0.0,0.0,0.0,0.0,0.0,0.0,0.0,0.0,0.0,0.0,0.0,0.0,0.0,0.0,0.0,0.0,0.0,0.0,0.0,0.0,0.0,0.0,0.0,0.0,0.0,0.0,0.0,0.0,0.0
S12_D14 hbo,0.0,0.0,0.03773584905660377,0.03018867924528302,0.0,0.0,0.0,0.04905660377358491,0.0,0.033962264150943396,0.0,0.045283018867924525,0.03018867924528302,0.0,0.0,0.0,0.0,0.0,0.04905660377358491,0.026415094339622643,0.04905660377358491,0.0,0.018867924528301886,0.0,0.04905660377358491,0.022641509433962263,0.04905660377358491,0.04905660377358491,0.0,0.03018867924528302,0.0,0.03018867924528302,0.026415094339622643,0.01509433962264151,0.033962264150943396,0.045283018867924525,0.0,0.0,0.045283018867924525,0.026415094339622643,0.0,0.011320754716981131,0.04905660377358491,0.026415094339622643,0.022641509433962263,0.045283018867924525,0.01509433962264151,0.0,0.0,0.01509433962264151,0.011320754716981131,0.011320754716981131
S13_D6 hbo,0.0,0.0,0.041025641025641026,0.041025641025641026,0.0,0.0,0.0,0.041025641025641026,0.0,0.041025641025641026,0.0,0.041025641025641026,0.041025641025641026,0.0,0.0,0.0,0.0,0.0,0.041025641025641026,0.010256410256410256,0.041025641025641026,0.0,0.0,0.0,0.041025641025641026,0.005128205128205128,0.041025641025641026,0.041025641025641026,0.0,0.041025641025641026,0.0,0.041025641025641026,0.035897435897435895,0.020512820512820513,0.041025641025641026,0.041025641025641026,0.0,0.0,0.041025641025641026,0.035897435897435895,0.0,0.015384615384615385,0.041025641025641026,0.035897435897435895,0.03076923076923077,0.041025641025641026,0.020512820512820513,0.0,0.0,0.020512820512820513,0.015384615384615385,0.015384615384615385
S13_D11 hbo,0.0,0.0,0.0,0.0,0.0,0.0,0.0,0.0,0.0,0.0,0.0,0.0,0.0,0.0,0.0,0.0,0.0,0.0,0.0,0.0,0.0,0.0,0.0,0.0,0.0,0.0,0.0,0.0,0.0,0.0,0.0,0.0,0.0,0.0,0.0,0.0,0.0,0.0,0.0,0.0,0.0,0.0,0.0,0.0,0.0,0.0,0.0,0.0,0.0,0.0,0.0,0.0
S13_D13 hbo,0.0,0.0,0.03669724770642202,0.03669724770642202,0.0,0.0,0.0,0.03669724770642202,0.0,0.03669724770642202,0.0,0.03669724770642202,0.03669724770642202,0.0,0.0,0.0,0.0,0.0,0.03669724770642202,0.0,0.03669724770642202,0.0,0.0,0.0,0.03669724770642202,0.0,0.03669724770642202,0.03669724770642202,0.0,0.03669724770642202,0.0,0.03669724770642202,0.03669724770642202,0.03669724770642202,0.03669724770642202,0.03669724770642202,0.0,0.0,0.03669724770642202,0.03669724770642202,0.0,0.027522935779816515,0.03669724770642202,0.03669724770642202,0.03669724770642202,0.03669724770642202,0.03669724770642202,0.0,0.0,0.03669724770642202,0.027522935779816515,0.027522935779816515
S13_D15 hbo,0.0,0.0,0.03355704697986577,0.026845637583892617,0.0,0.0,0.0,0.053691275167785234,0.0,0.030201342281879196,0.0,0.040268456375838924,0.026845637583892617,0.0,0.0,0.0,0.0,0.0,0.05704697986577181,0.03691275167785235,0.050335570469798654,0.0,0.030201342281879196,0.0,0.05704697986577181,0.03355704697986577,0.05704697986577181,0.04697986577181208,0.0,0.026845637583892617,0.0,0.026845637583892617,0.02348993288590604,0.013422818791946308,0.030201342281879196,0.040268456375838924,0.0,0.0,0.040268456375838924,0.02348993288590604,0.0,0.010067114093959731,0.053691275167785234,0.02348993288590604,0.020134228187919462,0.040268456375838924,0.013422818791946308,0.0,0.0,0.013422818791946308,0.010067114093959731,0.010067114093959731
S14_D12 hbo,0.0,0.0,0.041025641025641026,0.041025641025641026,0.0,0.0,0.0,0.041025641025641026,0.0,0.041025641025641026,0.0,0.041025641025641026,0.041025641025641026,0.0,0.0,0.0,0.0,0.0,0.041025641025641026,0.010256410256410256,0.041025641025641026,0.0,0.0,0.0,0.041025641025641026,0.005128205128205128,0.041025641025641026,0.041025641025641026,0.0,0.041025641025641026,0.0,0.041025641025641026,0.035897435897435895,0.020512820512820513,0.041025641025641026,0.041025641025641026,0.0,0.0,0.041025641025641026,0.035897435897435895,0.0,0.015384615384615385,0.041025641025641026,0.035897435897435895,0.03076923076923077,0.041025641025641026,0.020512820512820513,0.0,0.0,0.020512820512820513,0.015384615384615385,0.015384615384615385
S14_D13 hbo,0.0,0.0,0.04,0.04,0.0,0.0,0.0,0.04,0.0,0.04,0.0,0.04,0.04,0.0,0.0,0.0,0.0,0.0,0.04,0.005714285714285714,0.04,0.0,0.0,0.0,0.04,0.0,0.04,0.04,0.0,0.04,0.0,0.04,0.04,0.022857142857142857,0.04,0.04,0.0,0.0,0.04,0.04,0.0,0.017142857142857144,0.04,0.04,0.03428571428571429,0.04,0.022857142857142857,0.0,0.0,0.022857142857142857,0.017142857142857144,0.017142857142857144
S14_D14 hbo,0.0,0.0,0.03773584905660377,0.03018867924528302,0.0,0.0,0.0,0.04905660377358491,0.0,0.033962264150943396,0.0,0.045283018867924525,0.03018867924528302,0.0,0.0,0.0,0.0,0.0,0.04905660377358491,0.026415094339622643,0.04905660377358491,0.0,0.018867924528301886,0.0,0.04905660377358491,0.022641509433962263,0.04905660377358491,0.04905660377358491,0.0,0.03018867924528302,0.0,0.03018867924528302,0.026415094339622643,0.01509433962264151,0.033962264150943396,0.045283018867924525,0.0,0.0,0.045283018867924525,0.026415094339622643,0.0,0.011320754716981131,0.04905660377358491,0.026415094339622643,0.022641509433962263,0.045283018867924525,0.01509433962264151,0.0,0.0,0.01509433962264151,0.011320754716981131,0.011320754716981131
S14_D16 hbo,0.0,0.0,0.03816793893129771,0.03816793893129771,0.0,0.0,0.0,0.03816793893129771,0.0,0.03816793893129771,0.0,0.03816793893129771,0.03816793893129771,0.0,0.0,0.0,0.0,0.0,0.03816793893129771,0.0,0.03816793893129771,0.0,0.0,0.0,0.03816793893129771,0.0,0.03816793893129771,0.03816793893129771,0.0,0.03816793893129771,0.0,0.03816793893129771,0.03816793893129771,0.030534351145038167,0.03816793893129771,0.03816793893129771,0.0,0.0,0.03816793893129771,0.03816793893129771,0.0,0.022900763358778626,0.03816793893129771,0.03816793893129771,0.03816793893129771,0.03816793893129771,0.030534351145038167,0.0,0.0,0.030534351145038167,0.022900763358778626,0.022900763358778626
S15_D13 hbo,0.0,0.0,0.0,0.0,0.0,0.0,0.0,0.0,0.0,0.0,0.0,0.0,0.0,0.0,0.0,0.0,0.0,0.0,0.0,0.0,0.0,0.0,0.0,0.0,0.0,0.0,0.0,0.0,0.0,0.0,0.0,0.0,0.0,0.0,0.0,0.0,0.0,0.0,0.0,0.0,0.0,0.0,0.0,0.0,0.0,0.0,0.0,0.0,0.0,0.0,0.0,0.0
S15_D15 hbo,0.0,0.0,0.0,0.0,0.0,0.0,0.0,0.0,0.0,0.0,0.0,0.0,0.0,0.0,0.0,0.0,0.0,0.0,0.0,0.0,0.0,0.0,0.0,0.0,0.0,0.0,0.0,0.0,0.0,0.0,0.0,0.0,0.0,0.0,0.0,0.0,0.0,0.0,0.0,0.0,0.0,0.0,0.0,0.0,0.0,0.0,0.0,0.0,0.0,0.0,0.0,0.0
S15_D16 hbo,0.0,0.0,0.03816793893129771,0.03816793893129771,0.0,0.0,0.0,0.03816793893129771,0.0,0.03816793893129771,0.0,0.03816793893129771,0.03816793893129771,0.0,0.0,0.0,0.0,0.0,0.03816793893129771,0.0,0.03816793893129771,0.0,0.0,0.0,0.03816793893129771,0.0,0.03816793893129771,0.03816793893129771,0.0,0.03816793893129771,0.0,0.03816793893129771,0.03816793893129771,0.030534351145038167,0.03816793893129771,0.03816793893129771,0.0,0.0,0.03816793893129771,0.03816793893129771,0.0,0.022900763358778626,0.03816793893129771,0.03816793893129771,0.03816793893129771,0.03816793893129771,0.030534351145038167,0.0,0.0,0.030534351145038167,0.022900763358778626,0.022900763358778626
S16_D14 hbo,0.0,0.0,0.03669724770642202,0.03669724770642202,0.0,0.0,0.0,0.03669724770642202,0.0,0.03669724770642202,0.0,0.03669724770642202,0.03669724770642202,0.0,0.0,0.0,0.0,0.0,0.03669724770642202,0.0,0.03669724770642202,0.0,0.0,0.0,0.03669724770642202,0.0,0.03669724770642202,0.03669724770642202,0.0,0.03669724770642202,0.0,0.03669724770642202,0.03669724770642202,0.03669724770642202,0.03669724770642202,0.03669724770642202,0.0,0.0,0.03669724770642202,0.03669724770642202,0.0,0.027522935779816515,0.03669724770642202,0.03669724770642202,0.03669724770642202,0.03669724770642202,0.03669724770642202,0.0,0.0,0.03669724770642202,0.027522935779816515,0.027522935779816515
S16_D16 hbo,0.0,0.0,0.03669724770642202,0.03669724770642202,0.0,0.0,0.0,0.03669724770642202,0.0,0.03669724770642202,0.0,0.03669724770642202,0.03669724770642202,0.0,0.0,0.0,0.0,0.0,0.03669724770642202,0.0,0.03669724770642202,0.0,0.0,0.0,0.03669724770642202,0.0,0.03669724770642202,0.03669724770642202,0.0,0.03669724770642202,0.0,0.03669724770642202,0.03669724770642202,0.03669724770642202,0.03669724770642202,0.03669724770642202,0.0,0.0,0.03669724770642202,0.03669724770642202,0.0,0.027522935779816515,0.03669724770642202,0.03669724770642202,0.03669724770642202,0.03669724770642202,0.03669724770642202,0.0,0.0,0.03669724770642202,0.027522935779816515,0.027522935779816515
