,S1_D1 hbo,S1_D3 hbo,S2_D1 hbo,S2_D2 hbo,S2_D4 hbo,S3_D1 hbo,S3_D3 hbo,S3_D4 hbo,S3_D5 hbo,S4_D2 hbo,S4_D4 hbo,S4_D6 hbo,S4_D11 hbo,S5_D3 hbo,S5_D5 hbo,S5_D7 hbo,S6_D4 hbo,S6_D5 hbo,S6_D6 hbo,S6_D8 hbo,S7_D5 hbo,S7_D7 hbo,S7_D8 hbo,S8_D6 hbo,S8_D8 hbo,S8_D15 hbo,S9_D2 hbo,S9_D9 hbo,S9_D11 hbo,S10_D9 hbo,S10_D10 hbo,S10_D12 hbo,S11_D9 hbo,S11_D11 hbo,S11_D12 hbo,S11_D13 hbo,S12_D10 hbo,S12_D12 hbo,S12_D14 hbo,S13_D6 hbo,S13_D11 hbo,S13_D13 hbo,S13_D15 hbo,S14_D12 hbo,S14_D13 hbo,S14_D14 hbo,S14_D16 hbo,S15_D13 hbo,S15_D15 hbo,S15_D16 hbo,S16_D14 hbo,S16_D16 hbo
S1_D1 hbo,0.018121911037891267,0.019769357495881382,0.018121911037891267,0.019769357495881382,0.019769357495881382,0.019769357495881382,0.019769357495881382,0.019769357495881382,0.019769357495881382,0.019769357495881382,0.019769357495881382,0.019769357495881382,0.019769357495881382,0.018121911037891267,0.018121911037891267,0.019769357495881382,0.019769357495881382,0.018121911037891267,0.019769357495881382,0.019769357495881382,0.018121911037891267,0.019769357495881382,0.019769357495881382,0.019769357495881382,0.019769357495881382,0.019769357495881382,0.019769357495881382,0.019769357495881382,0.019769357495881382,0.019769357495881382,0.019769357495881382,0.019769357495881382,0.019769357495881382,0.019769357495881382,0.019769357495881382,0.019769357495881382,0.019769357495881382,0.018121911037891267,0.018121911037891267,0.019769357495881382,0.016474464579901153,0.014827018121911038,0.019769357495881382,0.016474464579901153,0.018121911037891267,0.019769357495881382,0.019769357495881382,0.018121911037891267,0.019769357495881382,0.019769357495881382,0.019769357495881382,0.019769357495881382
S1_D3 hbo,0.014397905759162303,0.02225130890052356,0.017015706806282723,0.01963350785340314,0.020942408376963352,0.02225130890052356,0.02225130890052356,0.017015706806282723,0.020942408376963352,0.020942408376963352,0.020942408376963352,0.02225130890052356,0.015706806282722512,0.020942408376963352,0.01963350785340314,0.020942408376963352,0.02225130890052356,0.017015706806282723,0.01963350785340314,0.02225130890052356,0.017015706806282723,0.02225130890052356,0.02225130890052356,0.020942408376963352,0.020942408376963352,0.020942408376963352,0.01832460732984293,0.015706806282722512,0.015706806282722512,0.015706806282722512,0.01963350785340314,0.020942408376963352,0.02225130890052356,0.01963350785340314,0.02225130890052356,0.01832460732984293,0.020942408376963352,0.01832460732984293,0.01832460732984293,0.015706806282722512,0.013089005235602094,0.011780104712041885,0.015706806282722512,0.017015706806282723,0.014397905759162303,0.020942408376963352,0.020942408376963352,0.017015706806282723,0.01963350785340314,0.02356020942408377,0.020942408376963352,0.01963350785340314
S2_D1 hbo,0.015406162464985995,0.02100840336134454,0.018207282913165267,0.02100840336134454,0.02100840336134454,0.02100840336134454,0.02100840336134454,0.018207282913165267,0.02100840336134454,0.02100840336134454,0.0196078431372549,0.0196078431372549,0.01680672268907563,0.0196078431372549,0.0196078431372549,0.0196078431372549,0.0196078431372549,0.018207282913165267,0.0196078431372549,0.02100840336134454,0.018207282913165267,0.02100840336134454,0.02100840336134454,0.02100840336134454,0.02100840336134454,0.02100840336134454,0.0196078431372549,0.01680672268907563,0.01680672268907563,0.01680672268907563,0.018207282913165267,0.02100840336134454,0.02100840336134454,0.02100840336134454,0.02100840336134454,0.0196078431372549,0.0196078431372549,0.0196078431372549,0.0196078431372549,0.01680672268907563,0.014005602240896359,0.012605042016806723,0.01680672268907563,0.018207282913165267,0.015406162464985995,0.02100840336134454,0.018207282913165267,0.018207282913165267,0.02100840336134454,0.02100840336134454,0.02100840336134454,0.0196078431372549
S2_D2 hbo,0.015384615384615385,0.02097902097902098,0.016783216783216783,0.019580419580419582,0.02097902097902098,0.02097902097902098,0.02097902097902098,0.01818181818181818,0.02097902097902098,0.02097902097902098,0.022377622377622378,0.022377622377622378,0.016783216783216783,0.019580419580419582,0.019580419580419582,0.02097902097902098,0.022377622377622378,0.016783216783216783,0.02097902097902098,0.02097902097902098,0.016783216783216783,0.02097902097902098,0.02097902097902098,0.02097902097902098,0.02097902097902098,0.02097902097902098,0.01818181818181818,0.016783216783216783,0.016783216783216783,0.016783216783216783,0.019580419580419582,0.02097902097902098,0.02097902097902098,0.019580419580419582,0.02097902097902098,0.01818181818181818,0.02097902097902098,0.01818181818181818,0.01818181818181818,0.016783216783216783,0.013986013986013986,0.012587412587412588,0.016783216783216783,0.016783216783216783,0.015384615384615385,0.02097902097902098,0.02097902097902098,0.016783216783216783,0.019580419580419582,0.02097902097902098,0.02097902097902098,0.02097902097902098
S2_D4 hbo,0.014416775884665793,0.022280471821756225,0.01703800786369594,0.019659239842726082,0.020969855832241154,0.022280471821756225,0.022280471821756225,0.01703800786369594,0.020969855832241154,0.020969855832241154,0.020969855832241154,0.022280471821756225,0.015727391874180863,0.020969855832241154,0.019659239842726082,0.020969855832241154,0.022280471821756225,0.01703800786369594,0.019659239842726082,0.022280471821756225,0.01703800786369594,0.022280471821756225,0.022280471821756225,0.020969855832241154,0.020969855832241154,0.020969855832241154,0.01834862385321101,0.015727391874180863,0.015727391874180863,0.015727391874180863,0.019659239842726082,0.020969855832241154,0.022280471821756225,0.019659239842726082,0.022280471821756225,0.01834862385321101,0.020969855832241154,0.01834862385321101,0.01834862385321101,0.015727391874180863,0.01310615989515072,0.011795543905635648,0.015727391874180863,0.01703800786369594,0.014416775884665793,0.020969855832241154,0.020969855832241154,0.01703800786369594,0.019659239842726082,0.022280471821756225,0.020969855832241154,0.019659239842726082
S3_D1 hbo,0.015027322404371584,0.02185792349726776,0.01639344262295082,0.01912568306010929,0.020491803278688523,0.02185792349726776,0.02185792349726776,0.017759562841530054,0.020491803278688523,0.020491803278688523,0.02185792349726776,0.023224043715846996,0.01639344262295082,0.020491803278688523,0.01912568306010929,0.02185792349726776,0.023224043715846996,0.01639344262295082,0.020491803278688523,0.02185792349726776,0.01639344262295082,0.02185792349726776,0.02185792349726776,0.020491803278688523,0.020491803278688523,0.020491803278688523,0.017759562841530054,0.01639344262295082,0.01639344262295082,0.01639344262295082,0.020491803278688523,0.020491803278688523,0.02185792349726776,0.01912568306010929,0.02185792349726776,0.017759562841530054,0.02185792349726776,0.017759562841530054,0.017759562841530054,0.01639344262295082,0.01366120218579235,0.012295081967213115,0.01639344262295082,0.01639344262295082,0.015027322404371584,0.020491803278688523,0.02185792349726776,0.01639344262295082,0.01912568306010929,0.023224043715846996,0.020491803278688523,0.020491803278688523
S3_D3 hbo,0.014397905759162303,0.02225130890052356,0.017015706806282723,0.01963350785340314,0.020942408376963352,0.02225130890052356,0.02225130890052356,0.017015706806282723,0.020942408376963352,0.020942408376963352,0.020942408376963352,0.02225130890052356,0.015706806282722512,0.020942408376963352,0.01963350785340314,0.020942408376963352,0.02225130890052356,0.017015706806282723,0.01963350785340314,0.02225130890052356,0.017015706806282723,0.02225130890052356,0.02225130890052356,0.020942408376963352,0.020942408376963352,0.020942408376963352,0.01832460732984293,0.015706806282722512,0.015706806282722512,0.015706806282722512,0.01963350785340314,0.020942408376963352,0.02225130890052356,0.01963350785340314,0.02225130890052356,0.01832460732984293,0.020942408376963352,0.01832460732984293,0.01832460732984293,0.015706806282722512,0.013089005235602094,0.011780104712041885,0.015706806282722512,0.017015706806282723,0.014397905759162303,0.020942408376963352,0.020942408376963352,0.017015706806282723,0.01963350785340314,0.02356020942408377,0.020942408376963352,0.01963350785340314
S3_D4 hbo,0.01697792869269949,0.02037351443123939,0.01697792869269949,0.01867572156196944,0.02037351443123939,0.02037351443123939,0.02037351443123939,0.01867572156196944,0.02037351443123939,0.02037351443123939,0.022071307300509338,0.022071307300509338,0.01867572156196944,0.01867572156196944,0.01867572156196944,0.02037351443123939,0.022071307300509338,0.01697792869269949,0.02037351443123939,0.02037351443123939,0.01697792869269949,0.02037351443123939,0.02037351443123939,0.02037351443123939,0.02037351443123939,0.02037351443123939,0.01867572156196944,0.01867572156196944,0.01867572156196944,0.01867572156196944,0.02037351443123939,0.02037351443123939,0.02037351443123939,0.01867572156196944,0.02037351443123939,0.01867572156196944,0.02037351443123939,0.01697792869269949,0.01697792869269949,0.01867572156196944,0.015280135823429542,0.015280135823429542,0.01867572156196944,0.015280135823429542,0.01697792869269949,0.02037351443123939,0.022071307300509338,0.01697792869269949,0.01867572156196944,0.02037351443123939,0.02037351443123939,0.02037351443123939
S3_D5 hbo,0.014066496163682864,0.023017902813299233,0.017902813299232736,0.01918158567774936,0.021739130434782608,0.021739130434782608,0.023017902813299233,0.016624040920716114,0.021739130434782608,0.020460358056265986,0.020460358056265986,0.021739130434782608,0.015345268542199489,0.021739130434782608,0.020460358056265986,0.020460358056265986,0.021739130434782608,0.017902813299232736,0.01918158567774936,0.023017902813299233,0.017902813299232736,0.021739130434782608,0.023017902813299233,0.020460358056265986,0.020460358056265986,0.021739130434782608,0.017902813299232736,0.015345268542199489,0.015345268542199489,0.015345268542199489,0.01918158567774936,0.020460358056265986,0.021739130434782608,0.01918158567774936,0.023017902813299233,0.017902813299232736,0.020460358056265986,0.01918158567774936,0.01918158567774936,0.015345268542199489,0.01278772378516624,0.011508951406649617,0.015345268542199489,0.017902813299232736,0.014066496163682864,0.020460358056265986,0.020460358056265986,0.017902813299232736,0.020460358056265986,0.023017902813299233,0.020460358056265986,0.01918158567774936
S4_D2 hbo,0.015047879616963064,0.02188782489740082,0.016415868673050615,0.019151846785225718,0.02051983584131327,0.02188782489740082,0.02188782489740082,0.017783857729138167,0.02051983584131327,0.02051983584131327,0.02188782489740082,0.023255813953488372,0.016415868673050615,0.02051983584131327,0.019151846785225718,0.02188782489740082,0.023255813953488372,0.016415868673050615,0.02051983584131327,0.02188782489740082,0.016415868673050615,0.02188782489740082,0.02188782489740082,0.02051983584131327,0.02051983584131327,0.02051983584131327,0.017783857729138167,0.016415868673050615,0.016415868673050615,0.016415868673050615,0.02051983584131327,0.02051983584131327,0.02188782489740082,0.019151846785225718,0.02188782489740082,0.017783857729138167,0.02188782489740082,0.017783857729138167,0.017783857729138167,0.016415868673050615,0.013679890560875513,0.012311901504787962,0.016415868673050615,0.016415868673050615,0.015047879616963064,0.02051983584131327,0.02188782489740082,0.016415868673050615,0.019151846785225718,0.02188782489740082,0.02051983584131327,0.02051983584131327
S4_D4 hbo,0.015600624024960999,0.0218408736349454,0.015600624024960999,0.0187207488299532,0.0202808112324493,0.0218408736349454,0.0218408736349454,0.0187207488299532,0.0202808112324493,0.0202808112324493,0.0218408736349454,0.0234009360374415,0.0171606864274571,0.0202808112324493,0.0187207488299532,0.0218408736349454,0.0234009360374415,0.015600624024960999,0.0202808112324493,0.0218408736349454,0.015600624024960999,0.0218408736349454,0.0218408736349454,0.0202808112324493,0.0202808112324493,0.0202808112324493,0.0171606864274571,0.0171606864274571,0.0171606864274571,0.0171606864274571,0.0218408736349454,0.0202808112324493,0.0218408736349454,0.0187207488299532,0.0218408736349454,0.0171606864274571,0.0218408736349454,0.0171606864274571,0.0171606864274571,0.0171606864274571,0.014040561622464899,0.014040561622464899,0.0171606864274571,0.015600624024960999,0.015600624024960999,0.0202808112324493,0.0234009360374415,0.015600624024960999,0.0187207488299532,0.0218408736349454,0.0202808112324493,0.0202808112324493
S4_D6 hbo,0.01557632398753894,0.021806853582554516,0.01557632398753894,0.018691588785046728,0.020249221183800622,0.021806853582554516,0.021806853582554516,0.018691588785046728,0.020249221183800622,0.020249221183800622,0.021806853582554516,0.02336448598130841,0.017133956386292833,0.020249221183800622,0.018691588785046728,0.021806853582554516,0.02336448598130841,0.01557632398753894,0.020249221183800622,0.021806853582554516,0.01557632398753894,0.021806853582554516,0.021806853582554516,0.020249221183800622,0.020249221183800622,0.020249221183800622,0.017133956386292833,0.017133956386292833,0.017133956386292833,0.017133956386292833,0.021806853582554516,0.020249221183800622,0.021806853582554516,0.018691588785046728,0.021806853582554516,0.017133956386292833,0.021806853582554516,0.017133956386292833,0.017133956386292833,0.017133956386292833,0.014018691588785047,0.014018691588785047,0.017133956386292833,0.01557632398753894,0.01557632398753894,0.020249221183800622,0.02336448598130841,0.01557632398753894,0.018691588785046728,0.02336448598130841,0.020249221183800622,0.020249221183800622
S4_D11 hbo,0.017857142857142856,0.019642857142857142,0.017857142857142856,0.019642857142857142,0.019642857142857142,0.019642857142857142,0.019642857142857142,0.019642857142857142,0.019642857142857142,0.019642857142857142,0.02142857142857143,0.02142857142857143,0.019642857142857142,0.017857142857142856,0.017857142857142856,0.019642857142857142,0.02142857142857143,0.017857142857142856,0.019642857142857142,0.019642857142857142,0.017857142857142856,0.019642857142857142,0.019642857142857142,0.019642857142857142,0.019642857142857142,0.019642857142857142,0.019642857142857142,0.019642857142857142,0.019642857142857142,0.019642857142857142,0.019642857142857142,0.019642857142857142,0.019642857142857142,0.019642857142857142,0.019642857142857142,0.019642857142857142,0.019642857142857142,0.017857142857142856,0.017857142857142856,0.019642857142857142,0.01607142857142857,0.01607142857142857,0.019642857142857142,0.01607142857142857,0.017857142857142856,0.019642857142857142,0.02142857142857143,0.017857142857142856,0.019642857142857142,0.019642857142857142,0.019642857142857142,0.019642857142857142
S5_D3 hbo,0.014473684210526316,0.02236842105263158,0.017105263157894738,0.019736842105263157,0.021052631578947368,0.02236842105263158,0.02236842105263158,0.017105263157894738,0.021052631578947368,0.021052631578947368,0.019736842105263157,0.021052631578947368,0.015789473684210527,0.021052631578947368,0.019736842105263157,0.021052631578947368,0.021052631578947368,0.017105263157894738,0.019736842105263157,0.02236842105263158,0.017105263157894738,0.02236842105263158,0.02236842105263158,0.021052631578947368,0.021052631578947368,0.021052631578947368,0.018421052631578946,0.015789473684210527,0.015789473684210527,0.015789473684210527,0.019736842105263157,0.021052631578947368,0.02236842105263158,0.019736842105263157,0.02236842105263158,0.018421052631578946,0.021052631578947368,0.018421052631578946,0.018421052631578946,0.015789473684210527,0.013157894736842105,0.011842105263157895,0.015789473684210527,0.017105263157894738,0.014473684210526316,0.021052631578947368,0.019736842105263157,0.017105263157894738,0.019736842105263157,0.02368421052631579,0.021052631578947368,0.019736842105263157
S5_D5 hbo,0.014138817480719794,0.02313624678663239,0.017994858611825194,0.019280205655526992,0.021850899742930592,0.021850899742930592,0.02313624678663239,0.016709511568123392,0.021850899742930592,0.02056555269922879,0.019280205655526992,0.02056555269922879,0.015424164524421594,0.021850899742930592,0.02056555269922879,0.02056555269922879,0.02056555269922879,0.017994858611825194,0.019280205655526992,0.02313624678663239,0.017994858611825194,0.021850899742930592,0.02313624678663239,0.02056555269922879,0.02056555269922879,0.021850899742930592,0.017994858611825194,0.015424164524421594,0.015424164524421594,0.015424164524421594,0.019280205655526992,0.02056555269922879,0.021850899742930592,0.019280205655526992,0.02313624678663239,0.017994858611825194,0.02056555269922879,0.019280205655526992,0.019280205655526992,0.015424164524421594,0.012853470437017995,0.011568123393316195,0.015424164524421594,0.017994858611825194,0.014138817480719794,0.02056555269922879,0.019280205655526992,0.017994858611825194,0.02056555269922879,0.02313624678663239,0.02056555269922879,0.019280205655526992
S5_D7 hbo,0.015873015873015872,0.021645021645021644,0.015873015873015872,0.01875901875901876,0.020202020202020204,0.021645021645021644,0.021645021645021644,0.01875901875901876,0.020202020202020204,0.020202020202020204,0.021645021645021644,0.023088023088023088,0.017316017316017316,0.020202020202020204,0.01875901875901876,0.021645021645021644,0.023088023088023088,0.015873015873015872,0.020202020202020204,0.021645021645021644,0.015873015873015872,0.021645021645021644,0.021645021645021644,0.020202020202020204,0.020202020202020204,0.020202020202020204,0.017316017316017316,0.017316017316017316,0.017316017316017316,0.017316017316017316,0.021645021645021644,0.020202020202020204,0.021645021645021644,0.01875901875901876,0.021645021645021644,0.017316017316017316,0.021645021645021644,0.017316017316017316,0.017316017316017316,0.017316017316017316,0.01443001443001443,0.012987012987012988,0.017316017316017316,0.015873015873015872,0.015873015873015872,0.020202020202020204,0.023088023088023088,0.015873015873015872,0.01875901875901876,0.023088023088023088,0.020202020202020204,0.020202020202020204
S6_D4 hbo,0.01557632398753894,0.021806853582554516,0.01557632398753894,0.018691588785046728,0.020249221183800622,0.021806853582554516,0.021806853582554516,0.018691588785046728,0.020249221183800622,0.020249221183800622,0.021806853582554516,0.02336448598130841,0.017133956386292833,0.020249221183800622,0.018691588785046728,0.021806853582554516,0.02336448598130841,0.01557632398753894,0.020249221183800622,0.021806853582554516,0.01557632398753894,0.021806853582554516,0.021806853582554516,0.020249221183800622,0.020249221183800622,0.020249221183800622,0.017133956386292833,0.017133956386292833,0.017133956386292833,0.017133956386292833,0.021806853582554516,0.020249221183800622,0.021806853582554516,0.018691588785046728,0.021806853582554516,0.017133956386292833,0.021806853582554516,0.017133956386292833,0.017133956386292833,0.017133956386292833,0.014018691588785047,0.014018691588785047,0.017133956386292833,0.01557632398753894,0.01557632398753894,0.020249221183800622,0.02336448598130841,0.01557632398753894,0.018691588785046728,0.02336448598130841,0.020249221183800622,0.020249221183800622
S6_D5 hbo,0.015006821282401092,0.021828103683492497,0.019099590723055934,0.020463847203274217,0.021828103683492497,0.020463847203274217,0.021828103683492497,0.017735334242837655,0.021828103683492497,0.020463847203274217,0.019099590723055934,0.019099590723055934,0.01637107776261937,0.020463847203274217,0.020463847203274217,0.019099590723055934,0.019099590723055934,0.019099590723055934,0.019099590723055934,0.021828103683492497,0.019099590723055934,0.020463847203274217,0.021828103683492497,0.020463847203274217,0.020463847203274217,0.021828103683492497,0.019099590723055934,0.01637107776261937,0.01637107776261937,0.01637107776261937,0.017735334242837655,0.020463847203274217,0.020463847203274217,0.020463847203274217,0.021828103683492497,0.019099590723055934,0.019099590723055934,0.020463847203274217,0.020463847203274217,0.01637107776261937,0.013642564802182811,0.01227830832196453,0.01637107776261937,0.019099590723055934,0.015006821282401092,0.020463847203274217,0.017735334242837655,0.019099590723055934,0.021828103683492497,0.021828103683492497,0.020463847203274217,0.019099590723055934
S6_D6 hbo,0.015895953757225433,0.02167630057803468,0.015895953757225433,0.01878612716763006,0.02023121387283237,0.02167630057803468,0.02167630057803468,0.01878612716763006,0.02023121387283237,0.02023121387283237,0.02167630057803468,0.023121387283236993,0.017341040462427744,0.02023121387283237,0.01878612716763006,0.02167630057803468,0.023121387283236993,0.015895953757225433,0.02023121387283237,0.02167630057803468,0.015895953757225433,0.02167630057803468,0.02167630057803468,0.02023121387283237,0.02023121387283237,0.02023121387283237,0.017341040462427744,0.017341040462427744,0.017341040462427744,0.017341040462427744,0.02167630057803468,0.02023121387283237,0.02167630057803468,0.01878612716763006,0.02167630057803468,0.017341040462427744,0.02167630057803468,0.017341040462427744,0.017341040462427744,0.017341040462427744,0.014450867052023121,0.01300578034682081,0.017341040462427744,0.015895953757225433,0.015895953757225433,0.02023121387283237,0.023121387283236993,0.015895953757225433,0.01878612716763006,0.02167630057803468,0.02023121387283237,0.02023121387283237
S6_D8 hbo,0.014397905759162303,0.02225130890052356,0.017015706806282723,0.01963350785340314,0.020942408376963352,0.02225130890052356,0.02225130890052356,0.017015706806282723,0.020942408376963352,0.020942408376963352,0.020942408376963352,0.02225130890052356,0.015706806282722512,0.020942408376963352,0.01963350785340314,0.020942408376963352,0.02225130890052356,0.017015706806282723,0.01963350785340314,0.02225130890052356,0.017015706806282723,0.02225130890052356,0.02225130890052356,0.020942408376963352,0.020942408376963352,0.020942408376963352,0.01832460732984293,0.015706806282722512,0.015706806282722512,0.015706806282722512,0.01963350785340314,0.020942408376963352,0.02225130890052356,0.01963350785340314,0.02225130890052356,0.01832460732984293,0.020942408376963352,0.01832460732984293,0.01832460732984293,0.015706806282722512,0.013089005235602094,0.011780104712041885,0.015706806282722512,0.017015706806282723,0.014397905759162303,0.020942408376963352,0.020942408376963352,0.017015706806282723,0.01963350785340314,0.02356020942408377,0.020942408376963352,0.01963350785340314
S7_D5 hbo,0.015006821282401092,0.021828103683492497,0.019099590723055934,0.020463847203274217,0.021828103683492497,0.020463847203274217,0.021828103683492497,0.017735334242837655,0.021828103683492497,0.020463847203274217,0.019099590723055934,0.019099590723055934,0.01637107776261937,0.020463847203274217,0.020463847203274217,0.019099590723055934,0.019099590723055934,0.019099590723055934,0.019099590723055934,0.021828103683492497,0.019099590723055934,0.020463847203274217,0.021828103683492497,0.020463847203274217,0.020463847203274217,0.021828103683492497,0.019099590723055934,0.01637107776261937,0.01637107776261937,0.01637107776261937,0.017735334242837655,0.020463847203274217,0.020463847203274217,0.020463847203274217,0.021828103683492497,0.019099590723055934,0.019099590723055934,0.020463847203274217,0.020463847203274217,0.01637107776261937,0.013642564802182811,0.01227830832196453,0.01637107776261937,0.019099590723055934,0.015006821282401092,0.020463847203274217,0.017735334242837655,0.019099590723055934,0.021828103683492497,0.021828103683492497,0.020463847203274217,0.019099590723055934
S7_D7 hbo,0.015027322404371584,0.02185792349726776,0.01639344262295082,0.01912568306010929,0.020491803278688523,0.02185792349726776,0.02185792349726776,0.017759562841530054,0.020491803278688523,0.020491803278688523,0.02185792349726776,0.023224043715846996,0.01639344262295082,0.020491803278688523,0.01912568306010929,0.02185792349726776,0.023224043715846996,0.01639344262295082,0.020491803278688523,0.02185792349726776,0.01639344262295082,0.02185792349726776,0.02185792349726776,0.020491803278688523,0.020491803278688523,0.020491803278688523,0.017759562841530054,0.01639344262295082,0.01639344262295082,0.01639344262295082,0.020491803278688523,0.020491803278688523,0.02185792349726776,0.01912568306010929,0.02185792349726776,0.017759562841530054,0.02185792349726776,0.017759562841530054,0.017759562841530054,0.01639344262295082,0.01366120218579235,0.012295081967213115,0.01639344262295082,0.01639344262295082,0.015027322404371584,0.020491803278688523,0.02185792349726776,0.01639344262295082,0.01912568306010929,0.023224043715846996,0.020491803278688523,0.020491803278688523
S7_D8 hbo,0.014397905759162303,0.02225130890052356,0.017015706806282723,0.01963350785340314,0.020942408376963352,0.02225130890052356,0.02225130890052356,0.017015706806282723,0.020942408376963352,0.020942408376963352,0.020942408376963352,0.02225130890052356,0.015706806282722512,0.020942408376963352,0.01963350785340314,0.020942408376963352,0.02225130890052356,0.017015706806282723,0.01963350785340314,0.02225130890052356,0.017015706806282723,0.02225130890052356,0.02225130890052356,0.020942408376963352,0.020942408376963352,0.020942408376963352,0.01832460732984293,0.015706806282722512,0.015706806282722512,0.015706806282722512,0.01963350785340314,0.020942408376963352,0.02225130890052356,0.01963350785340314,0.02225130890052356,0.01832460732984293,0.020942408376963352,0.01832460732984293,0.01832460732984293,0.015706806282722512,0.013089005235602094,0.011780104712041885,0.015706806282722512,0.017015706806282723,0.014397905759162303,0.020942408376963352,0.020942408376963352,0.017015706806282723,0.01963350785340314,0.02356020942408377,0.020942408376963352,0.01963350785340314
S8_D6 hbo,0.015047879616963064,0.02188782489740082,0.016415868673050615,0.019151846785225718,0.02051983584131327,0.02188782489740082,0.02188782489740082,0.017783857729138167,0.02051983584131327,0.02051983584131327,0.02188782489740082,0.023255813953488372,0.016415868673050615,0.02051983584131327,0.019151846785225718,0.02188782489740082,0.023255813953488372,0.016415868673050615,0.02051983584131327,0.02188782489740082,0.016415868673050615,0.02188782489740082,0.02188782489740082,0.02051983584131327,0.02051983584131327,0.02051983584131327,0.017783857729138167,0.016415868673050615,0.016415868673050615,0.016415868673050615,0.02051983584131327,0.02051983584131327,0.02188782489740082,0.019151846785225718,0.02188782489740082,0.017783857729138167,0.02188782489740082,0.017783857729138167,0.017783857729138167,0.016415868673050615,0.013679890560875513,0.012311901504787962,0.016415868673050615,0.016415868673050615,0.015047879616963064,0.02051983584131327,0.02188782489740082,0.016415868673050615,0.019151846785225718,0.02188782489740082,0.02051983584131327,0.02051983584131327
S8_D8 hbo,0.015047879616963064,0.02188782489740082,0.016415868673050615,0.019151846785225718,0.02051983584131327,0.02188782489740082,0.02188782489740082,0.017783857729138167,0.02051983584131327,0.02051983584131327,0.02188782489740082,0.023255813953488372,0.016415868673050615,0.02051983584131327,0.019151846785225718,0.02188782489740082,0.023255813953488372,0.016415868673050615,0.02051983584131327,0.02188782489740082,0.016415868673050615,0.02188782489740082,0.02188782489740082,0.02051983584131327,0.02051983584131327,0.02051983584131327,0.017783857729138167,0.016415868673050615,0.016415868673050615,0.016415868673050615,0.02051983584131327,0.02051983584131327,0.02188782489740082,0.019151846785225718,0.02188782489740082,0.017783857729138167,0.02188782489740082,0.017783857729138167,0.017783857729138167,0.016415868673050615,0.013679890560875513,0.012311901504787962,0.016415868673050615,0.016415868673050615,0.015047879616963064,0.02051983584131327,0.02188782489740082,0.016415868673050615,0.019151846785225718,0.02188782489740082,0.02051983584131327,0.02051983584131327
S8_D15 hbo,0.014416775884665793,0.022280471821756225,0.01703800786369594,0.019659239842726082,0.020969855832241154,0.022280471821756225,0.022280471821756225,0.01703800786369594,0.020969855832241154,0.020969855832241154,0.020969855832241154,0.022280471821756225,0.015727391874180863,0.020969855832241154,0.019659239842726082,0.020969855832241154,0.022280471821756225,0.01703800786369594,0.019659239842726082,0.022280471821756225,0.01703800786369594,0.022280471821756225,0.022280471821756225,0.020969855832241154,0.020969855832241154,0.020969855832241154,0.01834862385321101,0.015727391874180863,0.015727391874180863,0.015727391874180863,0.019659239842726082,0.020969855832241154,0.022280471821756225,0.019659239842726082,0.022280471821756225,0.01834862385321101,0.020969855832241154,0.01834862385321101,0.01834862385321101,0.015727391874180863,0.01310615989515072,0.011795543905635648,0.015727391874180863,0.01703800786369594,0.014416775884665793,0.020969855832241154,0.020969855832241154,0.01703800786369594,0.019659239842726082,0.022280471821756225,0.020969855832241154,0.019659239842726082
S9_D2 hbo,0.016034985422740525,0.02040816326530612,0.01749271137026239,0.02040816326530612,0.02040816326530612,0.02040816326530612,0.02040816326530612,0.018950437317784258,0.02040816326530612,0.02040816326530612,0.021865889212827987,0.021865889212827987,0.01749271137026239,0.018950437317784258,0.018950437317784258,0.02040816326530612,0.021865889212827987,0.01749271137026239,0.02040816326530612,0.02040816326530612,0.01749271137026239,0.02040816326530612,0.02040816326530612,0.02040816326530612,0.02040816326530612,0.02040816326530612,0.018950437317784258,0.01749271137026239,0.01749271137026239,0.01749271137026239,0.018950437317784258,0.02040816326530612,0.02040816326530612,0.02040816326530612,0.02040816326530612,0.018950437317784258,0.02040816326530612,0.018950437317784258,0.018950437317784258,0.01749271137026239,0.014577259475218658,0.013119533527696793,0.01749271137026239,0.01749271137026239,0.016034985422740525,0.02040816326530612,0.02040816326530612,0.01749271137026239,0.02040816326530612,0.02040816326530612,0.02040816326530612,0.02040816326530612
S9_D9 hbo,0.01800327332242226,0.019639934533551555,0.01800327332242226,0.019639934533551555,0.019639934533551555,0.019639934533551555,0.019639934533551555,0.019639934533551555,0.019639934533551555,0.019639934533551555,0.02127659574468085,0.02127659574468085,0.019639934533551555,0.01800327332242226,0.01800327332242226,0.019639934533551555,0.02127659574468085,0.01800327332242226,0.019639934533551555,0.019639934533551555,0.01800327332242226,0.019639934533551555,0.019639934533551555,0.019639934533551555,0.019639934533551555,0.019639934533551555,0.019639934533551555,0.019639934533551555,0.019639934533551555,0.019639934533551555,0.019639934533551555,0.019639934533551555,0.019639934533551555,0.019639934533551555,0.019639934533551555,0.019639934533551555,0.019639934533551555,0.01800327332242226,0.01800327332242226,0.019639934533551555,0.016366612111292964,0.014729950900163666,0.019639934533551555,0.016366612111292964,0.01800327332242226,0.019639934533551555,0.02127659574468085,0.01800327332242226,0.019639934533551555,0.019639934533551555,0.019639934533551555,0.019639934533551555
S9_D11 hbo,0.01800327332242226,0.019639934533551555,0.01800327332242226,0.019639934533551555,0.019639934533551555,0.019639934533551555,0.019639934533551555,0.019639934533551555,0.019639934533551555,0.019639934533551555,0.02127659574468085,0.02127659574468085,0.019639934533551555,0.01800327332242226,0.01800327332242226,0.019639934533551555,0.02127659574468085,0.01800327332242226,0.019639934533551555,0.019639934533551555,0.01800327332242226,0.019639934533551555,0.019639934533551555,0.019639934533551555,0.019639934533551555,0.019639934533551555,0.019639934533551555,0.019639934533551555,0.019639934533551555,0.019639934533551555,0.019639934533551555,0.019639934533551555,0.019639934533551555,0.019639934533551555,0.019639934533551555,0.019639934533551555,0.019639934533551555,0.01800327332242226,0.01800327332242226,0.019639934533551555,0.016366612111292964,0.014729950900163666,0.019639934533551555,0.016366612111292964,0.01800327332242226,0.019639934533551555,0.02127659574468085,0.01800327332242226,0.019639934533551555,0.019639934533551555,0.019639934533551555,0.019639934533551555
S10_D9 hbo,0.01800327332242226,0.019639934533551555,0.01800327332242226,0.019639934533551555,0.019639934533551555,0.019639934533551555,0.019639934533551555,0.019639934533551555,0.019639934533551555,0.019639934533551555,0.02127659574468085,0.02127659574468085,0.019639934533551555,0.01800327332242226,0.01800327332242226,0.019639934533551555,0.02127659574468085,0.01800327332242226,0.019639934533551555,0.019639934533551555,0.01800327332242226,0.019639934533551555,0.019639934533551555,0.019639934533551555,0.019639934533551555,0.019639934533551555,0.019639934533551555,0.019639934533551555,0.019639934533551555,0.019639934533551555,0.019639934533551555,0.019639934533551555,0.019639934533551555,0.019639934533551555,0.019639934533551555,0.019639934533551555,0.019639934533551555,0.01800327332242226,0.01800327332242226,0.019639934533551555,0.016366612111292964,0.014729950900163666,0.019639934533551555,0.016366612111292964,0.01800327332242226,0.019639934533551555,0.02127659574468085,0.01800327332242226,0.019639934533551555,0.019639934533551555,0.019639934533551555,0.019639934533551555
S10_D10 hbo,0.0165016501650165,0.02145214521452145,0.0165016501650165,0.018151815181518153,0.019801980198019802,0.02145214521452145,0.02145214521452145,0.018151815181518153,0.019801980198019802,0.019801980198019802,0.02145214521452145,0.0231023102310231,0.018151815181518153,0.019801980198019802,0.018151815181518153,0.02145214521452145,0.0231023102310231,0.0165016501650165,0.019801980198019802,0.02145214521452145,0.0165016501650165,0.02145214521452145,0.02145214521452145,0.019801980198019802,0.019801980198019802,0.019801980198019802,0.018151815181518153,0.018151815181518153,0.018151815181518153,0.018151815181518153,0.02145214521452145,0.019801980198019802,0.02145214521452145,0.018151815181518153,0.02145214521452145,0.018151815181518153,0.02145214521452145,0.0165016501650165,0.0165016501650165,0.018151815181518153,0.01485148514851485,0.01485148514851485,0.018151815181518153,0.01485148514851485,0.0165016501650165,0.019801980198019802,0.0231023102310231,0.0165016501650165,0.018151815181518153,0.0231023102310231,0.019801980198019802,0.019801980198019802
S10_D12 hbo,0.015047879616963064,0.02188782489740082,0.016415868673050615,0.019151846785225718,0.02051983584131327,0.02188782489740082,0.02188782489740082,0.017783857729138167,0.02051983584131327,0.02051983584131327,0.02188782489740082,0.023255813953488372,0.016415868673050615,0.02051983584131327,0.019151846785225718,0.02188782489740082,0.023255813953488372,0.016415868673050615,0.02051983584131327,0.02188782489740082,0.016415868673050615,0.02188782489740082,0.02188782489740082,0.02051983584131327,0.02051983584131327,0.02051983584131327,0.017783857729138167,0.016415868673050615,0.016415868673050615,0.016415868673050615,0.02051983584131327,0.02051983584131327,0.02188782489740082,0.019151846785225718,0.02188782489740082,0.017783857729138167,0.02188782489740082,0.017783857729138167,0.017783857729138167,0.016415868673050615,0.013679890560875513,0.012311901504787962,0.016415868673050615,0.016415868673050615,0.015047879616963064,0.02051983584131327,0.02188782489740082,0.016415868673050615,0.019151846785225718,0.02188782489740082,0.02051983584131327,0.02051983584131327
S11_D9 hbo,0.015027322404371584,0.02185792349726776,0.01639344262295082,0.01912568306010929,0.020491803278688523,0.02185792349726776,0.02185792349726776,0.017759562841530054,0.020491803278688523,0.020491803278688523,0.02185792349726776,0.023224043715846996,0.01639344262295082,0.020491803278688523,0.01912568306010929,0.02185792349726776,0.023224043715846996,0.01639344262295082,0.020491803278688523,0.02185792349726776,0.01639344262295082,0.02185792349726776,0.02185792349726776,0.020491803278688523,0.020491803278688523,0.020491803278688523,0.017759562841530054,0.01639344262295082,0.01639344262295082,0.01639344262295082,0.020491803278688523,0.020491803278688523,0.02185792349726776,0.01912568306010929,0.02185792349726776,0.017759562841530054,0.02185792349726776,0.017759562841530054,0.017759562841530054,0.01639344262295082,0.01366120218579235,0.012295081967213115,0.01639344262295082,0.01639344262295082,0.015027322404371584,0.020491803278688523,0.02185792349726776,0.01639344262295082,0.01912568306010929,0.023224043715846996,0.020491803278688523,0.020491803278688523
S11_D11 hbo,0.015384615384615385,0.02097902097902098,0.016783216783216783,0.019580419580419582,0.02097902097902098,0.02097902097902098,0.02097902097902098,0.01818181818181818,0.02097902097902098,0.02097902097902098,0.022377622377622378,0.022377622377622378,0.016783216783216783,0.019580419580419582,0.019580419580419582,0.02097902097902098,0.022377622377622378,0.016783216783216783,0.02097902097902098,0.02097902097902098,0.016783216783216783,0.02097902097902098,0.02097902097902098,0.02097902097902098,0.02097902097902098,0.02097902097902098,0.01818181818181818,0.016783216783216783,0.016783216783216783,0.016783216783216783,0.019580419580419582,0.02097902097902098,0.02097902097902098,0.019580419580419582,0.02097902097902098,0.01818181818181818,0.02097902097902098,0.01818181818181818,0.01818181818181818,0.016783216783216783,0.013986013986013986,0.012587412587412588,0.016783216783216783,0.016783216783216783,0.015384615384615385,0.02097902097902098,0.02097902097902098,0.016783216783216783,0.019580419580419582,0.02097902097902098,0.02097902097902098,0.02097902097902098
S11_D12 hbo,0.014397905759162303,0.02225130890052356,0.017015706806282723,0.01963350785340314,0.020942408376963352,0.02225130890052356,0.02225130890052356,0.017015706806282723,0.020942408376963352,0.020942408376963352,0.020942408376963352,0.02225130890052356,0.015706806282722512,0.020942408376963352,0.01963350785340314,0.020942408376963352,0.02225130890052356,0.017015706806282723,0.01963350785340314,0.02225130890052356,0.017015706806282723,0.02225130890052356,0.02225130890052356,0.020942408376963352,0.020942408376963352,0.020942408376963352,0.01832460732984293,0.015706806282722512,0.015706806282722512,0.015706806282722512,0.01963350785340314,0.020942408376963352,0.02225130890052356,0.01963350785340314,0.02225130890052356,0.01832460732984293,0.020942408376963352,0.01832460732984293,0.01832460732984293,0.015706806282722512,0.013089005235602094,0.011780104712041885,0.015706806282722512,0.017015706806282723,0.014397905759162303,0.020942408376963352,0.020942408376963352,0.017015706806282723,0.01963350785340314,0.02356020942408377,0.020942408376963352,0.01963350785340314
S11_D13 hbo,0.016034985422740525,0.02040816326530612,0.01749271137026239,0.02040816326530612,0.02040816326530612,0.02040816326530612,0.02040816326530612,0.018950437317784258,0.02040816326530612,0.02040816326530612,0.021865889212827987,0.021865889212827987,0.01749271137026239,0.018950437317784258,0.018950437317784258,0.02040816326530612,0.021865889212827987,0.01749271137026239,0.02040816326530612,0.02040816326530612,0.01749271137026239,0.02040816326530612,0.02040816326530612,0.02040816326530612,0.02040816326530612,0.02040816326530612,0.018950437317784258,0.01749271137026239,0.01749271137026239,0.01749271137026239,0.018950437317784258,0.02040816326530612,0.02040816326530612,0.02040816326530612,0.02040816326530612,0.018950437317784258,0.02040816326530612,0.018950437317784258,0.018950437317784258,0.01749271137026239,0.014577259475218658,0.013119533527696793,0.01749271137026239,0.01749271137026239,0.016034985422740525,0.02040816326530612,0.02040816326530612,0.01749271137026239,0.02040816326530612,0.02040816326530612,0.02040816326530612,0.02040816326530612
S12_D10 hbo,0.015873015873015872,0.021645021645021644,0.015873015873015872,0.01875901875901876,0.020202020202020204,0.021645021645021644,0.021645021645021644,0.01875901875901876,0.020202020202020204,0.020202020202020204,0.021645021645021644,0.023088023088023088,0.017316017316017316,0.020202020202020204,0.01875901875901876,0.021645021645021644,0.023088023088023088,0.015873015873015872,0.020202020202020204,0.021645021645021644,0.015873015873015872,0.021645021645021644,0.021645021645021644,0.020202020202020204,0.020202020202020204,0.020202020202020204,0.017316017316017316,0.017316017316017316,0.017316017316017316,0.017316017316017316,0.021645021645021644,0.020202020202020204,0.021645021645021644,0.01875901875901876,0.021645021645021644,0.017316017316017316,0.021645021645021644,0.017316017316017316,0.017316017316017316,0.017316017316017316,0.01443001443001443,0.012987012987012988,0.017316017316017316,0.015873015873015872,0.015873015873015872,0.020202020202020204,0.023088023088023088,0.015873015873015872,0.01875901875901876,0.023088023088023088,0.020202020202020204,0.020202020202020204
S12_D12 hbo,0.014804845222072678,0.021534320323014805,0.017496635262449527,0.020188425302826378,0.021534320323014805,0.021534320323014805,0.021534320323014805,0.017496635262449527,0.021534320323014805,0.021534320323014805,0.020188425302826378,0.020188425302826378,0.016150740242261104,0.020188425302826378,0.020188425302826378,0.020188425302826378,0.020188425302826378,0.017496635262449527,0.020188425302826378,0.021534320323014805,0.017496635262449527,0.021534320323014805,0.021534320323014805,0.021534320323014805,0.021534320323014805,0.021534320323014805,0.018842530282637954,0.016150740242261104,0.016150740242261104,0.016150740242261104,0.018842530282637954,0.021534320323014805,0.021534320323014805,0.020188425302826378,0.021534320323014805,0.018842530282637954,0.020188425302826378,0.018842530282637954,0.018842530282637954,0.016150740242261104,0.013458950201884253,0.012113055181695828,0.016150740242261104,0.017496635262449527,0.014804845222072678,0.021534320323014805,0.018842530282637954,0.017496635262449527,0.020188425302826378,0.021534320323014805,0.021534320323014805,0.020188425302826378
S12_D14 hbo,0.014435695538057743,0.02230971128608924,0.01837270341207349,0.01968503937007874,0.02230971128608924,0.02099737532808399,0.02230971128608924,0.01706036745406824,0.02230971128608924,0.02099737532808399,0.01968503937007874,0.01968503937007874,0.015748031496062992,0.02099737532808399,0.02099737532808399,0.01968503937007874,0.01968503937007874,0.01837270341207349,0.01968503937007874,0.02230971128608924,0.01837270341207349,0.02099737532808399,0.02230971128608924,0.02099737532808399,0.02099737532808399,0.02230971128608924,0.01837270341207349,0.015748031496062992,0.015748031496062992,0.015748031496062992,0.01837270341207349,0.02099737532808399,0.02099737532808399,0.01968503937007874,0.02230971128608924,0.01837270341207349,0.01968503937007874,0.01968503937007874,0.01968503937007874,0.015748031496062992,0.013123359580052493,0.011811023622047244,0.015748031496062992,0.01837270341207349,0.014435695538057743,0.02099737532808399,0.01837270341207349,0.01837270341207349,0.02099737532808399,0.02230971128608924,0.02099737532808399,0.01968503937007874
S13_D6 hbo,0.01800327332242226,0.019639934533551555,0.01800327332242226,0.019639934533551555,0.019639934533551555,0.019639934533551555,0.019639934533551555,0.019639934533551555,0.019639934533551555,0.019639934533551555,0.02127659574468085,0.02127659574468085,0.019639934533551555,0.01800327332242226,0.01800327332242226,0.019639934533551555,0.02127659574468085,0.01800327332242226,0.019639934533551555,0.019639934533551555,0.01800327332242226,0.019639934533551555,0.019639934533551555,0.019639934533551555,0.019639934533551555,0.019639934533551555,0.019639934533551555,0.019639934533551555,0.019639934533551555,0.019639934533551555,0.019639934533551555,0.019639934533551555,0.019639934533551555,0.019639934533551555,0.019639934533551555,0.019639934533551555,0.019639934533551555,0.01800327332242226,0.01800327332242226,0.019639934533551555,0.016366612111292964,0.014729950900163666,0.019639934533551555,0.016366612111292964,0.01800327332242226,0.019639934533551555,0.02127659574468085,0.01800327332242226,0.019639934533551555,0.019639934533551555,0.019639934533551555,0.019639934533551555
S13_D11 hbo,0.01936619718309859,0.01936619718309859,0.01936619718309859,0.01936619718309859,0.01936619718309859,0.01936619718309859,0.01936619718309859,0.01936619718309859,0.01936619718309859,0.01936619718309859,0.01936619718309859,0.01936619718309859,0.01936619718309859,0.01936619718309859,0.01936619718309859,0.01936619718309859,0.01936619718309859,0.01936619718309859,0.01936619718309859,0.01936619718309859,0.01936619718309859,0.01936619718309859,0.01936619718309859,0.01936619718309859,0.01936619718309859,0.01936619718309859,0.01936619718309859,0.01936619718309859,0.01936619718309859,0.01936619718309859,0.01936619718309859,0.01936619718309859,0.01936619718309859,0.01936619718309859,0.01936619718309859,0.01936619718309859,0.01936619718309859,0.01936619718309859,0.01936619718309859,0.01936619718309859,0.017605633802816902,0.01584507042253521,0.01936619718309859,0.017605633802816902,0.01936619718309859,0.01936619718309859,0.01936619718309859,0.01936619718309859,0.01936619718309859,0.01936619718309859,0.01936619718309859,0.01936619718309859
S13_D13 hbo,0.01935483870967742,0.01935483870967742,0.01935483870967742,0.01935483870967742,0.01935483870967742,0.01935483870967742,0.01935483870967742,0.01935483870967742,0.01935483870967742,0.01935483870967742,0.01935483870967742,0.01935483870967742,0.01935483870967742,0.01935483870967742,0.01935483870967742,0.01935483870967742,0.01935483870967742,0.01935483870967742,0.01935483870967742,0.01935483870967742,0.01935483870967742,0.01935483870967742,0.01935483870967742,0.01935483870967742,0.01935483870967742,0.01935483870967742,0.01935483870967742,0.01935483870967742,0.01935483870967742,0.01935483870967742,0.01935483870967742,0.01935483870967742,0.01935483870967742,0.01935483870967742,0.01935483870967742,0.01935483870967742,0.01935483870967742,0.01935483870967742,0.01935483870967742,0.01935483870967742,0.017204301075268817,0.017204301075268817,0.01935483870967742,0.017204301075268817,0.01935483870967742,0.01935483870967742,0.01935483870967742,0.01935483870967742,0.01935483870967742,0.01935483870967742,0.01935483870967742,0.01935483870967742
S13_D15 hbo,0.01800327332242226,0.019639934533551555,0.01800327332242226,0.019639934533551555,0.019639934533551555,0.019639934533551555,0.019639934533551555,0.019639934533551555,0.019639934533551555,0.019639934533551555,0.02127659574468085,0.02127659574468085,0.019639934533551555,0.01800327332242226,0.01800327332242226,0.019639934533551555,0.02127659574468085,0.01800327332242226,0.019639934533551555,0.019639934533551555,0.01800327332242226,0.019639934533551555,0.019639934533551555,0.019639934533551555,0.019639934533551555,0.019639934533551555,0.019639934533551555,0.019639934533551555,0.019639934533551555,0.019639934533551555,0.019639934533551555,0.019639934533551555,0.019639934533551555,0.019639934533551555,0.019639934533551555,0.019639934533551555,0.019639934533551555,0.01800327332242226,0.01800327332242226,0.019639934533551555,0.016366612111292964,0.014729950900163666,0.019639934533551555,0.016366612111292964,0.01800327332242226,0.019639934533551555,0.02127659574468085,0.01800327332242226,0.019639934533551555,0.019639934533551555,0.019639934533551555,0.019639934533551555
S14_D12 hbo,0.01556420233463035,0.02204928664072633,0.019455252918287938,0.019455252918287938,0.02204928664072633,0.020752269779507133,0.02204928664072633,0.01556420233463035,0.023346303501945526,0.020752269779507133,0.018158236057068743,0.018158236057068743,0.014267185473411154,0.02204928664072633,0.023346303501945526,0.019455252918287938,0.018158236057068743,0.020752269779507133,0.019455252918287938,0.02204928664072633,0.020752269779507133,0.020752269779507133,0.02204928664072633,0.020752269779507133,0.020752269779507133,0.02204928664072633,0.018158236057068743,0.01556420233463035,0.01556420233463035,0.01556420233463035,0.016861219195849545,0.020752269779507133,0.020752269779507133,0.019455252918287938,0.02204928664072633,0.018158236057068743,0.019455252918287938,0.020752269779507133,0.02204928664072633,0.01556420233463035,0.014267185473411154,0.011673151750972763,0.01556420233463035,0.020752269779507133,0.01556420233463035,0.020752269779507133,0.016861219195849545,0.019455252918287938,0.020752269779507133,0.020752269779507133,0.019455252918287938,0.019455252918287938
S14_D13 hbo,0.018121911037891267,0.019769357495881382,0.018121911037891267,0.019769357495881382,0.019769357495881382,0.019769357495881382,0.019769357495881382,0.019769357495881382,0.019769357495881382,0.019769357495881382,0.019769357495881382,0.019769357495881382,0.019769357495881382,0.018121911037891267,0.018121911037891267,0.019769357495881382,0.019769357495881382,0.018121911037891267,0.019769357495881382,0.019769357495881382,0.018121911037891267,0.019769357495881382,0.019769357495881382,0.019769357495881382,0.019769357495881382,0.019769357495881382,0.019769357495881382,0.019769357495881382,0.019769357495881382,0.019769357495881382,0.019769357495881382,0.019769357495881382,0.019769357495881382,0.019769357495881382,0.019769357495881382,0.019769357495881382,0.019769357495881382,0.018121911037891267,0.018121911037891267,0.019769357495881382,0.016474464579901153,0.014827018121911038,0.019769357495881382,0.016474464579901153,0.018121911037891267,0.019769357495881382,0.019769357495881382,0.018121911037891267,0.019769357495881382,0.019769357495881382,0.019769357495881382,0.019769357495881382
S14_D14 hbo,0.015047879616963064,0.02188782489740082,0.016415868673050615,0.019151846785225718,0.02051983584131327,0.02188782489740082,0.02188782489740082,0.017783857729138167,0.02051983584131327,0.02051983584131327,0.02188782489740082,0.023255813953488372,0.016415868673050615,0.02051983584131327,0.019151846785225718,0.02188782489740082,0.023255813953488372,0.016415868673050615,0.02051983584131327,0.02188782489740082,0.016415868673050615,0.02188782489740082,0.02188782489740082,0.02051983584131327,0.02051983584131327,0.02051983584131327,0.017783857729138167,0.016415868673050615,0.016415868673050615,0.016415868673050615,0.02051983584131327,0.02051983584131327,0.02188782489740082,0.019151846785225718,0.02188782489740082,0.017783857729138167,0.02188782489740082,0.017783857729138167,0.017783857729138167,0.016415868673050615,0.013679890560875513,0.012311901504787962,0.016415868673050615,0.016415868673050615,0.015047879616963064,0.02051983584131327,0.02188782489740082,0.016415868673050615,0.019151846785225718,0.02188782489740082,0.02051983584131327,0.02051983584131327
S14_D16 hbo,0.0165016501650165,0.02145214521452145,0.0165016501650165,0.018151815181518153,0.019801980198019802,0.02145214521452145,0.02145214521452145,0.018151815181518153,0.019801980198019802,0.019801980198019802,0.02145214521452145,0.0231023102310231,0.018151815181518153,0.019801980198019802,0.018151815181518153,0.02145214521452145,0.0231023102310231,0.0165016501650165,0.019801980198019802,0.02145214521452145,0.0165016501650165,0.02145214521452145,0.02145214521452145,0.019801980198019802,0.019801980198019802,0.019801980198019802,0.018151815181518153,0.018151815181518153,0.018151815181518153,0.018151815181518153,0.02145214521452145,0.019801980198019802,0.02145214521452145,0.018151815181518153,0.02145214521452145,0.018151815181518153,0.02145214521452145,0.0165016501650165,0.0165016501650165,0.018151815181518153,0.01485148514851485,0.01485148514851485,0.018151815181518153,0.01485148514851485,0.0165016501650165,0.019801980198019802,0.0231023102310231,0.0165016501650165,0.018151815181518153,0.0231023102310231,0.019801980198019802,0.019801980198019802
S15_D13 hbo,0.015406162464985995,0.02100840336134454,0.018207282913165267,0.02100840336134454,0.02100840336134454,0.02100840336134454,0.02100840336134454,0.018207282913165267,0.02100840336134454,0.02100840336134454,0.0196078431372549,0.0196078431372549,0.01680672268907563,0.0196078431372549,0.0196078431372549,0.0196078431372549,0.0196078431372549,0.018207282913165267,0.0196078431372549,0.02100840336134454,0.018207282913165267,0.02100840336134454,0.02100840336134454,0.02100840336134454,0.02100840336134454,0.02100840336134454,0.0196078431372549,0.01680672268907563,0.01680672268907563,0.01680672268907563,0.018207282913165267,0.02100840336134454,0.02100840336134454,0.02100840336134454,0.02100840336134454,0.0196078431372549,0.0196078431372549,0.0196078431372549,0.0196078431372549,0.01680672268907563,0.014005602240896359,0.012605042016806723,0.01680672268907563,0.018207282913165267,0.015406162464985995,0.02100840336134454,0.018207282913165267,0.018207282913165267,0.02100840336134454,0.02100840336134454,0.02100840336134454,0.0196078431372549
S15_D15 hbo,0.014725568942436412,0.0214190093708166,0.01740294511378849,0.020080321285140562,0.0214190093708166,0.0214190093708166,0.0214190093708166,0.01740294511378849,0.0214190093708166,0.0214190093708166,0.0214190093708166,0.0214190093708166,0.01606425702811245,0.020080321285140562,0.020080321285140562,0.020080321285140562,0.0214190093708166,0.01740294511378849,0.020080321285140562,0.0214190093708166,0.01740294511378849,0.0214190093708166,0.0214190093708166,0.0214190093708166,0.0214190093708166,0.0214190093708166,0.018741633199464525,0.01606425702811245,0.01606425702811245,0.01606425702811245,0.018741633199464525,0.0214190093708166,0.0214190093708166,0.020080321285140562,0.0214190093708166,0.018741633199464525,0.020080321285140562,0.018741633199464525,0.018741633199464525,0.01606425702811245,0.013386880856760375,0.012048192771084338,0.01606425702811245,0.01740294511378849,0.014725568942436412,0.0214190093708166,0.020080321285140562,0.01740294511378849,0.020080321285140562,0.0214190093708166,0.0214190093708166,0.020080321285140562
S15_D16 hbo,0.014025245441795231,0.02244039270687237,0.016830294530154277,0.019635343618513323,0.021037868162692847,0.02244039270687237,0.02244039270687237,0.016830294530154277,0.021037868162692847,0.021037868162692847,0.021037868162692847,0.02244039270687237,0.015427769985974754,0.021037868162692847,0.019635343618513323,0.021037868162692847,0.02244039270687237,0.016830294530154277,0.019635343618513323,0.02244039270687237,0.016830294530154277,0.02244039270687237,0.02244039270687237,0.021037868162692847,0.021037868162692847,0.021037868162692847,0.0182328190743338,0.015427769985974754,0.015427769985974754,0.015427769985974754,0.019635343618513323,0.021037868162692847,0.02244039270687237,0.019635343618513323,0.02244039270687237,0.0182328190743338,0.021037868162692847,0.0182328190743338,0.0182328190743338,0.015427769985974754,0.012622720897615708,0.012622720897615708,0.015427769985974754,0.016830294530154277,0.014025245441795231,0.021037868162692847,0.021037868162692847,0.016830294530154277,0.019635343618513323,0.023842917251051893,0.021037868162692847,0.019635343618513323
S16_D14 hbo,0.014705882352941176,0.022058823529411766,0.016176470588235296,0.01911764705882353,0.020588235294117647,0.022058823529411766,0.022058823529411766,0.01764705882352941,0.020588235294117647,0.020588235294117647,0.022058823529411766,0.023529411764705882,0.016176470588235296,0.020588235294117647,0.01911764705882353,0.022058823529411766,0.023529411764705882,0.016176470588235296,0.020588235294117647,0.022058823529411766,0.016176470588235296,0.022058823529411766,0.022058823529411766,0.020588235294117647,0.020588235294117647,0.020588235294117647,0.01764705882352941,0.016176470588235296,0.016176470588235296,0.016176470588235296,0.020588235294117647,0.020588235294117647,0.022058823529411766,0.01911764705882353,0.022058823529411766,0.01764705882352941,0.022058823529411766,0.01764705882352941,0.01764705882352941,0.016176470588235296,0.013235294117647059,0.013235294117647059,0.016176470588235296,0.016176470588235296,0.014705882352941176,0.020588235294117647,0.022058823529411766,0.016176470588235296,0.01911764705882353,0.022058823529411766,0.020588235294117647,0.020588235294117647
S16_D16 hbo,0.015895953757225433,0.02167630057803468,0.015895953757225433,0.01878612716763006,0.02023121387283237,0.02167630057803468,0.02167630057803468,0.01878612716763006,0.02023121387283237,0.02023121387283237,0.02167630057803468,0.023121387283236993,0.017341040462427744,0.02023121387283237,0.01878612716763006,0.02167630057803468,0.023121387283236993,0.015895953757225433,0.02023121387283237,0.02167630057803468,0.015895953757225433,0.02167630057803468,0.02167630057803468,0.02023121387283237,0.02023121387283237,0.02023121387283237,0.017341040462427744,0.017341040462427744,0.017341040462427744,0.017341040462427744,0.02167630057803468,0.02023121387283237,0.02167630057803468,0.01878612716763006,0.02167630057803468,0.017341040462427744,0.02167630057803468,0.017341040462427744,0.017341040462427744,0.017341040462427744,0.014450867052023121,0.01300578034682081,0.017341040462427744,0.015895953757225433,0.015895953757225433,0.02023121387283237,0.023121387283236993,0.015895953757225433,0.01878612716763006,0.02167630057803468,0.02023121387283237,0.02023121387283237
