,S1_D1 hbo,S1_D3 hbo,S2_D1 hbo,S2_D2 hbo,S2_D4 hbo,S3_D1 hbo,S3_D3 hbo,S3_D4 hbo,S3_D5 hbo,S4_D2 hbo,S4_D4 hbo,S4_D6 hbo,S4_D11 hbo,S5_D3 hbo,S5_D5 hbo,S5_D7 hbo,S6_D4 hbo,S6_D5 hbo,S6_D6 hbo,S6_D8 hbo,S7_D5 hbo,S7_D7 hbo,S7_D8 hbo,S8_D6 hbo,S8_D8 hbo,S8_D15 hbo,S9_D2 hbo,S9_D9 hbo,S9_D11 hbo,S10_D9 hbo,S10_D10 hbo,S10_D12 hbo,S11_D9 hbo,S11_D11 hbo,S11_D12 hbo,S11_D13 hbo,S12_D10 hbo,S12_D12 hbo,S12_D14 hbo,S13_D6 hbo,S13_D11 hbo,S13_D13 hbo,S13_D15 hbo,S14_D12 hbo,S14_D13 hbo,S14_D14 hbo,S14_D16 hbo,S15_D13 hbo,S15_D15 hbo,S15_D16 hbo,S16_D14 hbo,S16_D16 hbo
S1_D1 hbo,0.03619047619047619,0.030476190476190476,0.03428571428571429,0.0,0.022857142857142857,0.03619047619047619,0.011428571428571429,0.030476190476190476,0.03428571428571429,0.0,0.017142857142857144,0.015238095238095238,0.03619047619047619,0.03238095238095238,0.0038095238095238095,0.022857142857142857,0.02666666666666667,0.01904761904761905,0.017142857142857144,0.02095238095238095,0.0019047619047619048,0.022857142857142857,0.009523809523809525,0.01904761904761905,0.0,0.0,0.022857142857142857,0.0380952380952381,0.02857142857142857,0.0,0.0,0.0380952380952381,0.02095238095238095,0.024761904761904763,0.0,0.013333333333333334,0.0380952380952381,0.0,0.0,0.011428571428571429,0.0,0.01904761904761905,0.0380952380952381,0.007619047619047619,0.01904761904761905,0.0,0.0380952380952381,0.03238095238095238,0.03238095238095238,0.0380952380952381,0.0,0.0380952380952381
S1_D3 hbo,0.034274193548387094,0.03225806451612903,0.034274193548387094,0.0,0.024193548387096774,0.034274193548387094,0.012096774193548387,0.03225806451612903,0.034274193548387094,0.0,0.018145161290322582,0.016129032258064516,0.034274193548387094,0.034274193548387094,0.004032258064516129,0.024193548387096774,0.028225806451612902,0.020161290322580645,0.018145161290322582,0.02217741935483871,0.0020161290322580645,0.024193548387096774,0.010080645161290322,0.020161290322580645,0.0,0.0,0.024193548387096774,0.034274193548387094,0.03024193548387097,0.0,0.0,0.034274193548387094,0.02217741935483871,0.02620967741935484,0.0,0.014112903225806451,0.034274193548387094,0.0,0.0,0.012096774193548387,0.0,0.020161290322580645,0.034274193548387094,0.008064516129032258,0.020161290322580645,0.0,0.034274193548387094,0.034274193548387094,0.034274193548387094,0.034274193548387094,0.0,0.034274193548387094
S2_D1 hbo,0.03667953667953668,0.03088803088803089,0.03474903474903475,0.0,0.023166023166023165,0.03667953667953668,0.011583011583011582,0.03088803088803089,0.03474903474903475,0.0,0.017374517374517374,0.015444015444015444,0.03667953667953668,0.032818532818532815,0.003861003861003861,0.023166023166023165,0.02702702702702703,0.019305019305019305,0.017374517374517374,0.021235521235521235,0.0019305019305019305,0.023166023166023165,0.009652509652509652,0.019305019305019305,0.0,0.0,0.023166023166023165,0.03667953667953668,0.02895752895752896,0.0,0.0,0.03667953667953668,0.021235521235521235,0.025096525096525095,0.0,0.013513513513513514,0.03667953667953668,0.0,0.0,0.011583011583011582,0.0,0.019305019305019305,0.03667953667953668,0.007722007722007722,0.019305019305019305,0.0,0.03667953667953668,0.032818532818532815,0.032818532818532815,0.03667953667953668,0.0,0.03667953667953668
S2_D2 hbo,0.0,0.0,0.0,0.0,0.0,0.0,0.0,0.0,0.0,0.0,0.0,0.0,0.0,0.0,0.0,0.0,0.0,0.0,0.0,0.0,0.0,0.0,0.0,0.0,0.0,0.0,0.0,0.0,0.0,0.0,0.0,0.0,0.0,0.0,0.0,0.0,0.0,0.0,0.0,0.0,0.0,0.0,0.0,0.0,0.0,0.0,0.0,0.0,0.0,0.0,0.0,0.0
S2_D4 hbo,0.03044496487119438,0.03044496487119438,0.03044496487119438,0.0,0.02810304449648712,0.03044496487119438,0.01405152224824356,0.03044496487119438,0.03044496487119438,0.0,0.02107728337236534,0.01873536299765808,0.03044496487119438,0.03044496487119438,0.00468384074941452,0.02810304449648712,0.03044496487119438,0.0234192037470726,0.02107728337236534,0.02576112412177986,0.00234192037470726,0.02810304449648712,0.0117096018735363,0.0234192037470726,0.0,0.0,0.02810304449648712,0.03044496487119438,0.03044496487119438,0.0,0.0,0.03044496487119438,0.02576112412177986,0.03044496487119438,0.0,0.01639344262295082,0.03044496487119438,0.0,0.0,0.01405152224824356,0.0,0.0234192037470726,0.03044496487119438,0.00936768149882904,0.0234192037470726,0.0,0.03044496487119438,0.03044496487119438,0.03044496487119438,0.03044496487119438,0.0,0.03044496487119438
S3_D1 hbo,0.03619047619047619,0.030476190476190476,0.03428571428571429,0.0,0.022857142857142857,0.03619047619047619,0.011428571428571429,0.030476190476190476,0.03428571428571429,0.0,0.017142857142857144,0.015238095238095238,0.03619047619047619,0.03238095238095238,0.0038095238095238095,0.022857142857142857,0.02666666666666667,0.01904761904761905,0.017142857142857144,0.02095238095238095,0.0019047619047619048,0.022857142857142857,0.009523809523809525,0.01904761904761905,0.0,0.0,0.022857142857142857,0.0380952380952381,0.02857142857142857,0.0,0.0,0.0380952380952381,0.02095238095238095,0.024761904761904763,0.0,0.013333333333333334,0.0380952380952381,0.0,0.0,0.011428571428571429,0.0,0.01904761904761905,0.0380952380952381,0.007619047619047619,0.01904761904761905,0.0,0.0380952380952381,0.03238095238095238,0.03238095238095238,0.0380952380952381,0.0,0.0380952380952381
S3_D3 hbo,0.026717557251908396,0.026717557251908396,0.026717557251908396,0.0,0.026717557251908396,0.026717557251908396,0.022900763358778626,0.026717557251908396,0.026717557251908396,0.0,0.026717557251908396,0.026717557251908396,0.026717557251908396,0.026717557251908396,0.007633587786259542,0.026717557251908396,0.026717557251908396,0.026717557251908396,0.026717557251908396,0.026717557251908396,0.003816793893129771,0.026717557251908396,0.019083969465648856,0.026717557251908396,0.0,0.0,0.026717557251908396,0.026717557251908396,0.026717557251908396,0.0,0.0,0.026717557251908396,0.026717557251908396,0.026717557251908396,0.0,0.026717557251908396,0.026717557251908396,0.0,0.0,0.022900763358778626,0.0,0.026717557251908396,0.026717557251908396,0.015267175572519083,0.026717557251908396,0.0,0.026717557251908396,0.026717557251908396,0.026717557251908396,0.026717557251908396,0.0,0.026717557251908396
S3_D4 hbo,0.034274193548387094,0.03225806451612903,0.034274193548387094,0.0,0.024193548387096774,0.034274193548387094,0.012096774193548387,0.03225806451612903,0.034274193548387094,0.0,0.018145161290322582,0.016129032258064516,0.034274193548387094,0.034274193548387094,0.004032258064516129,0.024193548387096774,0.028225806451612902,0.020161290322580645,0.018145161290322582,0.02217741935483871,0.0020161290322580645,0.024193548387096774,0.010080645161290322,0.020161290322580645,0.0,0.0,0.024193548387096774,0.034274193548387094,0.03024193548387097,0.0,0.0,0.034274193548387094,0.02217741935483871,0.02620967741935484,0.0,0.014112903225806451,0.034274193548387094,0.0,0.0,0.012096774193548387,0.0,0.020161290322580645,0.034274193548387094,0.008064516129032258,0.020161290322580645,0.0,0.034274193548387094,0.034274193548387094,0.034274193548387094,0.034274193548387094,0.0,0.034274193548387094
S3_D5 hbo,0.03667953667953668,0.03088803088803089,0.03474903474903475,0.0,0.023166023166023165,0.03667953667953668,0.011583011583011582,0.03088803088803089,0.03474903474903475,0.0,0.017374517374517374,0.015444015444015444,0.03667953667953668,0.032818532818532815,0.003861003861003861,0.023166023166023165,0.02702702702702703,0.019305019305019305,0.017374517374517374,0.021235521235521235,0.0019305019305019305,0.023166023166023165,0.009652509652509652,0.019305019305019305,0.0,0.0,0.023166023166023165,0.03667953667953668,0.02895752895752896,0.0,0.0,0.03667953667953668,0.021235521235521235,0.025096525096525095,0.0,0.013513513513513514,0.03667953667953668,0.0,0.0,0.011583011583011582,0.0,0.019305019305019305,0.03667953667953668,0.007722007722007722,0.019305019305019305,0.0,0.03667953667953668,0.032818532818532815,0.032818532818532815,0.03667953667953668,0.0,0.03667953667953668
S4_D2 hbo,0.0,0.0,0.0,0.0,0.0,0.0,0.0,0.0,0.0,0.0,0.0,0.0,0.0,0.0,0.0,0.0,0.0,0.0,0.0,0.0,0.0,0.0,0.0,0.0,0.0,0.0,0.0,0.0,0.0,0.0,0.0,0.0,0.0,0.0,0.0,0.0,0.0,0.0,0.0,0.0,0.0,0.0,0.0,0.0,0.0,0.0,0.0,0.0,0.0,0.0,0.0,0.0
S4_D4 hbo,0.028011204481792718,0.028011204481792718,0.028011204481792718,0.0,0.028011204481792718,0.028011204481792718,0.01680672268907563,0.028011204481792718,0.028011204481792718,0.0,0.025210084033613446,0.022408963585434174,0.028011204481792718,0.028011204481792718,0.0056022408963585435,0.028011204481792718,0.028011204481792718,0.028011204481792718,0.025210084033613446,0.028011204481792718,0.0028011204481792717,0.028011204481792718,0.014005602240896359,0.028011204481792718,0.0,0.0,0.028011204481792718,0.028011204481792718,0.028011204481792718,0.0,0.0,0.028011204481792718,0.028011204481792718,0.028011204481792718,0.0,0.0196078431372549,0.028011204481792718,0.0,0.0,0.01680672268907563,0.0,0.028011204481792718,0.028011204481792718,0.011204481792717087,0.028011204481792718,0.0,0.028011204481792718,0.028011204481792718,0.028011204481792718,0.028011204481792718,0.0,0.028011204481792718
S4_D6 hbo,0.027522935779816515,0.027522935779816515,0.027522935779816515,0.0,0.027522935779816515,0.027522935779816515,0.01834862385321101,0.027522935779816515,0.027522935779816515,0.0,0.027522935779816515,0.024464831804281346,0.027522935779816515,0.027522935779816515,0.0061162079510703364,0.027522935779816515,0.027522935779816515,0.027522935779816515,0.027522935779816515,0.027522935779816515,0.0030581039755351682,0.027522935779816515,0.01529051987767584,0.027522935779816515,0.0,0.0,0.027522935779816515,0.027522935779816515,0.027522935779816515,0.0,0.0,0.027522935779816515,0.027522935779816515,0.027522935779816515,0.0,0.021406727828746176,0.027522935779816515,0.0,0.0,0.01834862385321101,0.0,0.027522935779816515,0.027522935779816515,0.012232415902140673,0.027522935779816515,0.0,0.027522935779816515,0.027522935779816515,0.027522935779816515,0.027522935779816515,0.0,0.027522935779816515
S4_D11 hbo,0.03619047619047619,0.030476190476190476,0.03428571428571429,0.0,0.022857142857142857,0.03619047619047619,0.011428571428571429,0.030476190476190476,0.03428571428571429,0.0,0.017142857142857144,0.015238095238095238,0.03619047619047619,0.03238095238095238,0.0038095238095238095,0.022857142857142857,0.02666666666666667,0.01904761904761905,0.017142857142857144,0.02095238095238095,0.0019047619047619048,0.022857142857142857,0.009523809523809525,0.01904761904761905,0.0,0.0,0.022857142857142857,0.0380952380952381,0.02857142857142857,0.0,0.0,0.0380952380952381,0.02095238095238095,0.024761904761904763,0.0,0.013333333333333334,0.0380952380952381,0.0,0.0,0.011428571428571429,0.0,0.01904761904761905,0.0380952380952381,0.007619047619047619,0.01904761904761905,0.0,0.0380952380952381,0.03238095238095238,0.03238095238095238,0.0380952380952381,0.0,0.0380952380952381
S5_D3 hbo,0.03543307086614173,0.031496062992125984,0.03543307086614173,0.0,0.023622047244094488,0.03543307086614173,0.011811023622047244,0.031496062992125984,0.03543307086614173,0.0,0.017716535433070866,0.015748031496062992,0.03543307086614173,0.03346456692913386,0.003937007874015748,0.023622047244094488,0.027559055118110236,0.01968503937007874,0.017716535433070866,0.021653543307086614,0.001968503937007874,0.023622047244094488,0.00984251968503937,0.01968503937007874,0.0,0.0,0.023622047244094488,0.03543307086614173,0.02952755905511811,0.0,0.0,0.03543307086614173,0.021653543307086614,0.025590551181102362,0.0,0.013779527559055118,0.03543307086614173,0.0,0.0,0.011811023622047244,0.0,0.01968503937007874,0.03543307086614173,0.007874015748031496,0.01968503937007874,0.0,0.03543307086614173,0.03346456692913386,0.03346456692913386,0.03543307086614173,0.0,0.03543307086614173
S5_D5 hbo,0.02564102564102564,0.02564102564102564,0.02564102564102564,0.0,0.02564102564102564,0.02564102564102564,0.02564102564102564,0.02564102564102564,0.02564102564102564,0.0,0.02564102564102564,0.02564102564102564,0.02564102564102564,0.02564102564102564,0.017094017094017096,0.02564102564102564,0.02564102564102564,0.02564102564102564,0.02564102564102564,0.02564102564102564,0.008547008547008548,0.02564102564102564,0.02564102564102564,0.02564102564102564,0.0,0.0,0.02564102564102564,0.02564102564102564,0.02564102564102564,0.0,0.0,0.02564102564102564,0.02564102564102564,0.02564102564102564,0.0,0.02564102564102564,0.02564102564102564,0.0,0.0,0.02564102564102564,0.0,0.02564102564102564,0.02564102564102564,0.02564102564102564,0.02564102564102564,0.0,0.02564102564102564,0.02564102564102564,0.02564102564102564,0.02564102564102564,0.0,0.02564102564102564
S5_D7 hbo,0.03044496487119438,0.03044496487119438,0.03044496487119438,0.0,0.02810304449648712,0.03044496487119438,0.01405152224824356,0.03044496487119438,0.03044496487119438,0.0,0.02107728337236534,0.01873536299765808,0.03044496487119438,0.03044496487119438,0.00468384074941452,0.02810304449648712,0.03044496487119438,0.0234192037470726,0.02107728337236534,0.02576112412177986,0.00234192037470726,0.02810304449648712,0.0117096018735363,0.0234192037470726,0.0,0.0,0.02810304449648712,0.03044496487119438,0.03044496487119438,0.0,0.0,0.03044496487119438,0.02576112412177986,0.03044496487119438,0.0,0.01639344262295082,0.03044496487119438,0.0,0.0,0.01405152224824356,0.0,0.0234192037470726,0.03044496487119438,0.00936768149882904,0.0234192037470726,0.0,0.03044496487119438,0.03044496487119438,0.03044496487119438,0.03044496487119438,0.0,0.03044496487119438
S6_D4 hbo,0.032327586206896554,0.032327586206896554,0.032327586206896554,0.0,0.02586206896551724,0.032327586206896554,0.01293103448275862,0.032327586206896554,0.032327586206896554,0.0,0.01939655172413793,0.017241379310344827,0.032327586206896554,0.032327586206896554,0.004310344827586207,0.02586206896551724,0.03017241379310345,0.021551724137931036,0.01939655172413793,0.023706896551724137,0.0021551724137931034,0.02586206896551724,0.010775862068965518,0.021551724137931036,0.0,0.0,0.02586206896551724,0.032327586206896554,0.032327586206896554,0.0,0.0,0.032327586206896554,0.023706896551724137,0.028017241379310345,0.0,0.015086206896551725,0.032327586206896554,0.0,0.0,0.01293103448275862,0.0,0.021551724137931036,0.032327586206896554,0.008620689655172414,0.021551724137931036,0.0,0.032327586206896554,0.032327586206896554,0.032327586206896554,0.032327586206896554,0.0,0.032327586206896554
S6_D5 hbo,0.028720626631853787,0.028720626631853787,0.028720626631853787,0.0,0.028720626631853787,0.028720626631853787,0.015665796344647518,0.028720626631853787,0.028720626631853787,0.0,0.02349869451697128,0.020887728459530026,0.028720626631853787,0.028720626631853787,0.005221932114882507,0.028720626631853787,0.028720626631853787,0.02610966057441253,0.02349869451697128,0.028720626631853787,0.0026109660574412533,0.028720626631853787,0.013054830287206266,0.02610966057441253,0.0,0.0,0.028720626631853787,0.028720626631853787,0.028720626631853787,0.0,0.0,0.028720626631853787,0.028720626631853787,0.028720626631853787,0.0,0.018276762402088774,0.028720626631853787,0.0,0.0,0.015665796344647518,0.0,0.02610966057441253,0.028720626631853787,0.010443864229765013,0.02610966057441253,0.0,0.028720626631853787,0.028720626631853787,0.028720626631853787,0.028720626631853787,0.0,0.028720626631853787
S6_D6 hbo,0.028011204481792718,0.028011204481792718,0.028011204481792718,0.0,0.028011204481792718,0.028011204481792718,0.01680672268907563,0.028011204481792718,0.028011204481792718,0.0,0.025210084033613446,0.022408963585434174,0.028011204481792718,0.028011204481792718,0.0056022408963585435,0.028011204481792718,0.028011204481792718,0.028011204481792718,0.025210084033613446,0.028011204481792718,0.0028011204481792717,0.028011204481792718,0.014005602240896359,0.028011204481792718,0.0,0.0,0.028011204481792718,0.028011204481792718,0.028011204481792718,0.0,0.0,0.028011204481792718,0.028011204481792718,0.028011204481792718,0.0,0.0196078431372549,0.028011204481792718,0.0,0.0,0.01680672268907563,0.0,0.028011204481792718,0.028011204481792718,0.011204481792717087,0.028011204481792718,0.0,0.028011204481792718,0.028011204481792718,0.028011204481792718,0.028011204481792718,0.0,0.028011204481792718
S6_D8 hbo,0.029484029484029485,0.029484029484029485,0.029484029484029485,0.0,0.029484029484029485,0.029484029484029485,0.014742014742014743,0.029484029484029485,0.029484029484029485,0.0,0.022113022113022112,0.019656019656019656,0.029484029484029485,0.029484029484029485,0.004914004914004914,0.029484029484029485,0.029484029484029485,0.02457002457002457,0.022113022113022112,0.02702702702702703,0.002457002457002457,0.029484029484029485,0.012285012285012284,0.02457002457002457,0.0,0.0,0.029484029484029485,0.029484029484029485,0.029484029484029485,0.0,0.0,0.029484029484029485,0.02702702702702703,0.029484029484029485,0.0,0.0171990171990172,0.029484029484029485,0.0,0.0,0.014742014742014743,0.0,0.02457002457002457,0.029484029484029485,0.009828009828009828,0.02457002457002457,0.0,0.029484029484029485,0.029484029484029485,0.029484029484029485,0.029484029484029485,0.0,0.029484029484029485
S7_D5 hbo,0.02531645569620253,0.02531645569620253,0.02531645569620253,0.0,0.02531645569620253,0.02531645569620253,0.02531645569620253,0.02531645569620253,0.02531645569620253,0.0,0.02531645569620253,0.02531645569620253,0.02531645569620253,0.02531645569620253,0.02531645569620253,0.02531645569620253,0.02531645569620253,0.02531645569620253,0.02531645569620253,0.02531645569620253,0.012658227848101266,0.02531645569620253,0.02531645569620253,0.02531645569620253,0.0,0.0,0.02531645569620253,0.02531645569620253,0.02531645569620253,0.0,0.0,0.02531645569620253,0.02531645569620253,0.02531645569620253,0.0,0.02531645569620253,0.02531645569620253,0.0,0.0,0.02531645569620253,0.0,0.02531645569620253,0.02531645569620253,0.02531645569620253,0.02531645569620253,0.0,0.02531645569620253,0.02531645569620253,0.02531645569620253,0.02531645569620253,0.0,0.02531645569620253
S7_D7 hbo,0.03044496487119438,0.03044496487119438,0.03044496487119438,0.0,0.02810304449648712,0.03044496487119438,0.01405152224824356,0.03044496487119438,0.03044496487119438,0.0,0.02107728337236534,0.01873536299765808,0.03044496487119438,0.03044496487119438,0.00468384074941452,0.02810304449648712,0.03044496487119438,0.0234192037470726,0.02107728337236534,0.02576112412177986,0.00234192037470726,0.02810304449648712,0.0117096018735363,0.0234192037470726,0.0,0.0,0.02810304449648712,0.03044496487119438,0.03044496487119438,0.0,0.0,0.03044496487119438,0.02576112412177986,0.03044496487119438,0.0,0.01639344262295082,0.03044496487119438,0.0,0.0,0.01405152224824356,0.0,0.0234192037470726,0.03044496487119438,0.00936768149882904,0.0234192037470726,0.0,0.03044496487119438,0.03044496487119438,0.03044496487119438,0.03044496487119438,0.0,0.03044496487119438
S7_D8 hbo,0.02631578947368421,0.02631578947368421,0.02631578947368421,0.0,0.02631578947368421,0.02631578947368421,0.02631578947368421,0.02631578947368421,0.02631578947368421,0.0,0.02631578947368421,0.02631578947368421,0.02631578947368421,0.02631578947368421,0.008771929824561403,0.02631578947368421,0.02631578947368421,0.02631578947368421,0.02631578947368421,0.02631578947368421,0.0043859649122807015,0.02631578947368421,0.021929824561403508,0.02631578947368421,0.0,0.0,0.02631578947368421,0.02631578947368421,0.02631578947368421,0.0,0.0,0.02631578947368421,0.02631578947368421,0.02631578947368421,0.0,0.02631578947368421,0.02631578947368421,0.0,0.0,0.02631578947368421,0.0,0.02631578947368421,0.02631578947368421,0.017543859649122806,0.02631578947368421,0.0,0.02631578947368421,0.02631578947368421,0.02631578947368421,0.02631578947368421,0.0,0.02631578947368421
S8_D6 hbo,0.028720626631853787,0.028720626631853787,0.028720626631853787,0.0,0.028720626631853787,0.028720626631853787,0.015665796344647518,0.028720626631853787,0.028720626631853787,0.0,0.02349869451697128,0.020887728459530026,0.028720626631853787,0.028720626631853787,0.005221932114882507,0.028720626631853787,0.028720626631853787,0.02610966057441253,0.02349869451697128,0.028720626631853787,0.0026109660574412533,0.028720626631853787,0.013054830287206266,0.02610966057441253,0.0,0.0,0.028720626631853787,0.028720626631853787,0.028720626631853787,0.0,0.0,0.028720626631853787,0.028720626631853787,0.028720626631853787,0.0,0.018276762402088774,0.028720626631853787,0.0,0.0,0.015665796344647518,0.0,0.02610966057441253,0.028720626631853787,0.010443864229765013,0.02610966057441253,0.0,0.028720626631853787,0.028720626631853787,0.028720626631853787,0.028720626631853787,0.0,0.028720626631853787
S8_D8 hbo,0.0,0.0,0.0,0.0,0.0,0.0,0.0,0.0,0.0,0.0,0.0,0.0,0.0,0.0,0.0,0.0,0.0,0.0,0.0,0.0,0.0,0.0,0.0,0.0,0.0,0.0,0.0,0.0,0.0,0.0,0.0,0.0,0.0,0.0,0.0,0.0,0.0,0.0,0.0,0.0,0.0,0.0,0.0,0.0,0.0,0.0,0.0,0.0,0.0,0.0,0.0,0.0
S8_D15 hbo,0.025,0.025,0.025,0.0,0.025,0.025,0.025,0.025,0.025,0.0,0.025,0.025,0.025,0.025,0.025,0.025,0.025,0.025,0.025,0.025,0.025,0.025,0.025,0.025,0.0,0.0,0.025,0.025,0.025,0.0,0.0,0.025,0.025,0.025,0.0,0.025,0.025,0.0,0.0,0.025,0.0,0.025,0.025,0.025,0.025,0.0,0.025,0.025,0.025,0.025,0.0,0.025
S9_D2 hbo,0.03044496487119438,0.03044496487119438,0.03044496487119438,0.0,0.02810304449648712,0.03044496487119438,0.01405152224824356,0.03044496487119438,0.03044496487119438,0.0,0.02107728337236534,0.01873536299765808,0.03044496487119438,0.03044496487119438,0.00468384074941452,0.02810304449648712,0.03044496487119438,0.0234192037470726,0.02107728337236534,0.02576112412177986,0.00234192037470726,0.02810304449648712,0.0117096018735363,0.0234192037470726,0.0,0.0,0.02810304449648712,0.03044496487119438,0.03044496487119438,0.0,0.0,0.03044496487119438,0.02576112412177986,0.03044496487119438,0.0,0.01639344262295082,0.03044496487119438,0.0,0.0,0.01405152224824356,0.0,0.0234192037470726,0.03044496487119438,0.00936768149882904,0.0234192037470726,0.0,0.03044496487119438,0.03044496487119438,0.03044496487119438,0.03044496487119438,0.0,0.03044496487119438
S9_D9 hbo,0.03531598513011153,0.02973977695167286,0.03345724907063197,0.0,0.022304832713754646,0.03531598513011153,0.011152416356877323,0.02973977695167286,0.03345724907063197,0.0,0.016728624535315983,0.01486988847583643,0.03531598513011153,0.031598513011152414,0.0037174721189591076,0.022304832713754646,0.026022304832713755,0.01858736059479554,0.016728624535315983,0.020446096654275093,0.0018587360594795538,0.022304832713754646,0.00929368029739777,0.01858736059479554,0.0,0.0,0.022304832713754646,0.040892193308550186,0.027881040892193308,0.0,0.0,0.04275092936802974,0.020446096654275093,0.024163568773234202,0.0,0.013011152416356878,0.04275092936802974,0.0,0.0,0.011152416356877323,0.0,0.01858736059479554,0.03717472118959108,0.007434944237918215,0.01858736059479554,0.0,0.04275092936802974,0.031598513011152414,0.031598513011152414,0.03717472118959108,0.0,0.040892193308550186
S9_D11 hbo,0.033264033264033266,0.033264033264033266,0.033264033264033266,0.0,0.02494802494802495,0.033264033264033266,0.012474012474012475,0.033264033264033266,0.033264033264033266,0.0,0.018711018711018712,0.016632016632016633,0.033264033264033266,0.033264033264033266,0.004158004158004158,0.02494802494802495,0.029106029106029108,0.02079002079002079,0.018711018711018712,0.02286902286902287,0.002079002079002079,0.02494802494802495,0.010395010395010396,0.02079002079002079,0.0,0.0,0.02494802494802495,0.033264033264033266,0.031185031185031187,0.0,0.0,0.033264033264033266,0.02286902286902287,0.02702702702702703,0.0,0.014553014553014554,0.033264033264033266,0.0,0.0,0.012474012474012475,0.0,0.02079002079002079,0.033264033264033266,0.008316008316008316,0.02079002079002079,0.0,0.033264033264033266,0.033264033264033266,0.033264033264033266,0.033264033264033266,0.0,0.033264033264033266
S10_D9 hbo,0.0,0.0,0.0,0.0,0.0,0.0,0.0,0.0,0.0,0.0,0.0,0.0,0.0,0.0,0.0,0.0,0.0,0.0,0.0,0.0,0.0,0.0,0.0,0.0,0.0,0.0,0.0,0.0,0.0,0.0,0.0,0.0,0.0,0.0,0.0,0.0,0.0,0.0,0.0,0.0,0.0,0.0,0.0,0.0,0.0,0.0,0.0,0.0,0.0,0.0,0.0,0.0
S10_D10 hbo,0.0,0.0,0.0,0.0,0.0,0.0,0.0,0.0,0.0,0.0,0.0,0.0,0.0,0.0,0.0,0.0,0.0,0.0,0.0,0.0,0.0,0.0,0.0,0.0,0.0,0.0,0.0,0.0,0.0,0.0,0.0,0.0,0.0,0.0,0.0,0.0,0.0,0.0,0.0,0.0,0.0,0.0,0.0,0.0,0.0,0.0,0.0,0.0,0.0,0.0,0.0,0.0
S10_D12 hbo,0.03473491773308958,0.029250457038391225,0.03290676416819013,0.0,0.021937842778793418,0.03473491773308958,0.010968921389396709,0.029250457038391225,0.03290676416819013,0.0,0.016453382084095063,0.014625228519195612,0.03473491773308958,0.031078610603290677,0.003656307129798903,0.021937842778793418,0.025594149908592323,0.018281535648994516,0.016453382084095063,0.02010968921389397,0.0018281535648994515,0.021937842778793418,0.009140767824497258,0.018281535648994516,0.0,0.0,0.021937842778793418,0.04021937842778794,0.027422303473491772,0.0,0.0,0.05301645338208409,0.02010968921389397,0.02376599634369287,0.0,0.012797074954296161,0.043875685557586835,0.0,0.0,0.010968921389396709,0.0,0.018281535648994516,0.03656307129798903,0.007312614259597806,0.018281535648994516,0.0,0.04570383912248629,0.031078610603290677,0.031078610603290677,0.03656307129798903,0.0,0.04021937842778794
S11_D9 hbo,0.029484029484029485,0.029484029484029485,0.029484029484029485,0.0,0.029484029484029485,0.029484029484029485,0.014742014742014743,0.029484029484029485,0.029484029484029485,0.0,0.022113022113022112,0.019656019656019656,0.029484029484029485,0.029484029484029485,0.004914004914004914,0.029484029484029485,0.029484029484029485,0.02457002457002457,0.022113022113022112,0.02702702702702703,0.002457002457002457,0.029484029484029485,0.012285012285012284,0.02457002457002457,0.0,0.0,0.029484029484029485,0.029484029484029485,0.029484029484029485,0.0,0.0,0.029484029484029485,0.02702702702702703,0.029484029484029485,0.0,0.0171990171990172,0.029484029484029485,0.0,0.0,0.014742014742014743,0.0,0.02457002457002457,0.029484029484029485,0.009828009828009828,0.02457002457002457,0.0,0.029484029484029485,0.029484029484029485,0.029484029484029485,0.029484029484029485,0.0,0.029484029484029485
S11_D11 hbo,0.03139013452914798,0.03139013452914798,0.03139013452914798,0.0,0.026905829596412557,0.03139013452914798,0.013452914798206279,0.03139013452914798,0.03139013452914798,0.0,0.020179372197309416,0.017937219730941704,0.03139013452914798,0.03139013452914798,0.004484304932735426,0.026905829596412557,0.03139013452914798,0.02242152466367713,0.020179372197309416,0.02466367713004484,0.002242152466367713,0.026905829596412557,0.011210762331838564,0.02242152466367713,0.0,0.0,0.026905829596412557,0.03139013452914798,0.03139013452914798,0.0,0.0,0.03139013452914798,0.02466367713004484,0.02914798206278027,0.0,0.01569506726457399,0.03139013452914798,0.0,0.0,0.013452914798206279,0.0,0.02242152466367713,0.03139013452914798,0.008968609865470852,0.02242152466367713,0.0,0.03139013452914798,0.03139013452914798,0.03139013452914798,0.03139013452914798,0.0,0.03139013452914798
S11_D12 hbo,0.0,0.0,0.0,0.0,0.0,0.0,0.0,0.0,0.0,0.0,0.0,0.0,0.0,0.0,0.0,0.0,0.0,0.0,0.0,0.0,0.0,0.0,0.0,0.0,0.0,0.0,0.0,0.0,0.0,0.0,0.0,0.0,0.0,0.0,0.0,0.0,0.0,0.0,0.0,0.0,0.0,0.0,0.0,0.0,0.0,0.0,0.0,0.0,0.0,0.0,0.0,0.0
S11_D13 hbo,0.02711864406779661,0.02711864406779661,0.02711864406779661,0.0,0.02711864406779661,0.02711864406779661,0.020338983050847456,0.02711864406779661,0.02711864406779661,0.0,0.02711864406779661,0.02711864406779661,0.02711864406779661,0.02711864406779661,0.006779661016949152,0.02711864406779661,0.02711864406779661,0.02711864406779661,0.02711864406779661,0.02711864406779661,0.003389830508474576,0.02711864406779661,0.01694915254237288,0.02711864406779661,0.0,0.0,0.02711864406779661,0.02711864406779661,0.02711864406779661,0.0,0.0,0.02711864406779661,0.02711864406779661,0.02711864406779661,0.0,0.023728813559322035,0.02711864406779661,0.0,0.0,0.020338983050847456,0.0,0.02711864406779661,0.02711864406779661,0.013559322033898305,0.02711864406779661,0.0,0.02711864406779661,0.02711864406779661,0.02711864406779661,0.02711864406779661,0.0,0.02711864406779661
S12_D10 hbo,0.034990791896869246,0.029465930018416207,0.03314917127071823,0.0,0.022099447513812154,0.034990791896869246,0.011049723756906077,0.029465930018416207,0.03314917127071823,0.0,0.016574585635359115,0.014732965009208104,0.034990791896869246,0.03130755064456722,0.003683241252302026,0.022099447513812154,0.02578268876611418,0.01841620626151013,0.016574585635359115,0.020257826887661142,0.001841620626151013,0.022099447513812154,0.009208103130755065,0.01841620626151013,0.0,0.0,0.022099447513812154,0.040515653775322284,0.027624309392265192,0.0,0.0,0.04604051565377532,0.020257826887661142,0.02394106813996317,0.0,0.01289134438305709,0.04419889502762431,0.0,0.0,0.011049723756906077,0.0,0.01841620626151013,0.03683241252302026,0.007366482504604052,0.01841620626151013,0.0,0.04604051565377532,0.03130755064456722,0.03130755064456722,0.03683241252302026,0.0,0.040515653775322284
S12_D12 hbo,0.0,0.0,0.0,0.0,0.0,0.0,0.0,0.0,0.0,0.0,0.0,0.0,0.0,0.0,0.0,0.0,0.0,0.0,0.0,0.0,0.0,0.0,0.0,0.0,0.0,0.0,0.0,0.0,0.0,0.0,0.0,0.0,0.0,0.0,0.0,0.0,0.0,0.0,0.0,0.0,0.0,0.0,0.0,0.0,0.0,0.0,0.0,0.0,0.0,0.0,0.0,0.0
S12_D14 hbo,0.0,0.0,0.0,0.0,0.0,0.0,0.0,0.0,0.0,0.0,0.0,0.0,0.0,0.0,0.0,0.0,0.0,0.0,0.0,0.0,0.0,0.0,0.0,0.0,0.0,0.0,0.0,0.0,0.0,0.0,0.0,0.0,0.0,0.0,0.0,0.0,0.0,0.0,0.0,0.0,0.0,0.0,0.0,0.0,0.0,0.0,0.0,0.0,0.0,0.0,0.0,0.0
S13_D6 hbo,0.026717557251908396,0.026717557251908396,0.026717557251908396,0.0,0.026717557251908396,0.026717557251908396,0.022900763358778626,0.026717557251908396,0.026717557251908396,0.0,0.026717557251908396,0.026717557251908396,0.026717557251908396,0.026717557251908396,0.007633587786259542,0.026717557251908396,0.026717557251908396,0.026717557251908396,0.026717557251908396,0.026717557251908396,0.003816793893129771,0.026717557251908396,0.019083969465648856,0.026717557251908396,0.0,0.0,0.026717557251908396,0.026717557251908396,0.026717557251908396,0.0,0.0,0.026717557251908396,0.026717557251908396,0.026717557251908396,0.0,0.026717557251908396,0.026717557251908396,0.0,0.0,0.022900763358778626,0.0,0.026717557251908396,0.026717557251908396,0.015267175572519083,0.026717557251908396,0.0,0.026717557251908396,0.026717557251908396,0.026717557251908396,0.026717557251908396,0.0,0.026717557251908396
S13_D11 hbo,0.0,0.0,0.0,0.0,0.0,0.0,0.0,0.0,0.0,0.0,0.0,0.0,0.0,0.0,0.0,0.0,0.0,0.0,0.0,0.0,0.0,0.0,0.0,0.0,0.0,0.0,0.0,0.0,0.0,0.0,0.0,0.0,0.0,0.0,0.0,0.0,0.0,0.0,0.0,0.0,0.0,0.0,0.0,0.0,0.0,0.0,0.0,0.0,0.0,0.0,0.0,0.0
S13_D13 hbo,0.028720626631853787,0.028720626631853787,0.028720626631853787,0.0,0.028720626631853787,0.028720626631853787,0.015665796344647518,0.028720626631853787,0.028720626631853787,0.0,0.02349869451697128,0.020887728459530026,0.028720626631853787,0.028720626631853787,0.005221932114882507,0.028720626631853787,0.028720626631853787,0.02610966057441253,0.02349869451697128,0.028720626631853787,0.0026109660574412533,0.028720626631853787,0.013054830287206266,0.02610966057441253,0.0,0.0,0.028720626631853787,0.028720626631853787,0.028720626631853787,0.0,0.0,0.028720626631853787,0.028720626631853787,0.028720626631853787,0.0,0.018276762402088774,0.028720626631853787,0.0,0.0,0.015665796344647518,0.0,0.02610966057441253,0.028720626631853787,0.010443864229765013,0.02610966057441253,0.0,0.028720626631853787,0.028720626631853787,0.028720626631853787,0.028720626631853787,0.0,0.028720626631853787
S13_D15 hbo,0.035849056603773584,0.03018867924528302,0.033962264150943396,0.0,0.022641509433962263,0.035849056603773584,0.011320754716981131,0.03018867924528302,0.033962264150943396,0.0,0.016981132075471698,0.01509433962264151,0.035849056603773584,0.03207547169811321,0.0037735849056603774,0.022641509433962263,0.026415094339622643,0.018867924528301886,0.016981132075471698,0.020754716981132074,0.0018867924528301887,0.022641509433962263,0.009433962264150943,0.018867924528301886,0.0,0.0,0.022641509433962263,0.03962264150943396,0.02830188679245283,0.0,0.0,0.03962264150943396,0.020754716981132074,0.024528301886792454,0.0,0.013207547169811321,0.03962264150943396,0.0,0.0,0.011320754716981131,0.0,0.018867924528301886,0.03773584905660377,0.007547169811320755,0.018867924528301886,0.0,0.03962264150943396,0.03207547169811321,0.03207547169811321,0.03773584905660377,0.0,0.03962264150943396
S14_D12 hbo,0.026041666666666668,0.026041666666666668,0.026041666666666668,0.0,0.026041666666666668,0.026041666666666668,0.026041666666666668,0.026041666666666668,0.026041666666666668,0.0,0.026041666666666668,0.026041666666666668,0.026041666666666668,0.026041666666666668,0.010416666666666666,0.026041666666666668,0.026041666666666668,0.026041666666666668,0.026041666666666668,0.026041666666666668,0.005208333333333333,0.026041666666666668,0.026041666666666668,0.026041666666666668,0.0,0.0,0.026041666666666668,0.026041666666666668,0.026041666666666668,0.0,0.0,0.026041666666666668,0.026041666666666668,0.026041666666666668,0.0,0.026041666666666668,0.026041666666666668,0.0,0.0,0.026041666666666668,0.0,0.026041666666666668,0.026041666666666668,0.020833333333333332,0.026041666666666668,0.0,0.026041666666666668,0.026041666666666668,0.026041666666666668,0.026041666666666668,0.0,0.026041666666666668
S14_D13 hbo,0.028720626631853787,0.028720626631853787,0.028720626631853787,0.0,0.028720626631853787,0.028720626631853787,0.015665796344647518,0.028720626631853787,0.028720626631853787,0.0,0.02349869451697128,0.020887728459530026,0.028720626631853787,0.028720626631853787,0.005221932114882507,0.028720626631853787,0.028720626631853787,0.02610966057441253,0.02349869451697128,0.028720626631853787,0.0026109660574412533,0.028720626631853787,0.013054830287206266,0.02610966057441253,0.0,0.0,0.028720626631853787,0.028720626631853787,0.028720626631853787,0.0,0.0,0.028720626631853787,0.028720626631853787,0.028720626631853787,0.0,0.018276762402088774,0.028720626631853787,0.0,0.0,0.015665796344647518,0.0,0.02610966057441253,0.028720626631853787,0.010443864229765013,0.02610966057441253,0.0,0.028720626631853787,0.028720626631853787,0.028720626631853787,0.028720626631853787,0.0,0.028720626631853787
S14_D14 hbo,0.0,0.0,0.0,0.0,0.0,0.0,0.0,0.0,0.0,0.0,0.0,0.0,0.0,0.0,0.0,0.0,0.0,0.0,0.0,0.0,0.0,0.0,0.0,0.0,0.0,0.0,0.0,0.0,0.0,0.0,0.0,0.0,0.0,0.0,0.0,0.0,0.0,0.0,0.0,0.0,0.0,0.0,0.0,0.0,0.0,0.0,0.0,0.0,0.0,0.0,0.0,0.0
S14_D16 hbo,0.034926470588235295,0.029411764705882353,0.03308823529411765,0.0,0.022058823529411766,0.034926470588235295,0.011029411764705883,0.029411764705882353,0.03308823529411765,0.0,0.016544117647058824,0.014705882352941176,0.034926470588235295,0.03125,0.003676470588235294,0.022058823529411766,0.025735294117647058,0.01838235294117647,0.016544117647058824,0.02022058823529412,0.001838235294117647,0.022058823529411766,0.009191176470588236,0.01838235294117647,0.0,0.0,0.022058823529411766,0.04044117647058824,0.027573529411764705,0.0,0.0,0.04779411764705882,0.02022058823529412,0.02389705882352941,0.0,0.012867647058823529,0.04411764705882353,0.0,0.0,0.011029411764705883,0.0,0.01838235294117647,0.03676470588235294,0.007352941176470588,0.01838235294117647,0.0,0.04595588235294118,0.03125,0.03125,0.03676470588235294,0.0,0.04044117647058824
S15_D13 hbo,0.03543307086614173,0.031496062992125984,0.03543307086614173,0.0,0.023622047244094488,0.03543307086614173,0.011811023622047244,0.031496062992125984,0.03543307086614173,0.0,0.017716535433070866,0.015748031496062992,0.03543307086614173,0.03346456692913386,0.003937007874015748,0.023622047244094488,0.027559055118110236,0.01968503937007874,0.017716535433070866,0.021653543307086614,0.001968503937007874,0.023622047244094488,0.00984251968503937,0.01968503937007874,0.0,0.0,0.023622047244094488,0.03543307086614173,0.02952755905511811,0.0,0.0,0.03543307086614173,0.021653543307086614,0.025590551181102362,0.0,0.013779527559055118,0.03543307086614173,0.0,0.0,0.011811023622047244,0.0,0.01968503937007874,0.03543307086614173,0.007874015748031496,0.01968503937007874,0.0,0.03543307086614173,0.03346456692913386,0.03346456692913386,0.03543307086614173,0.0,0.03543307086614173
S15_D15 hbo,0.03543307086614173,0.031496062992125984,0.03543307086614173,0.0,0.023622047244094488,0.03543307086614173,0.011811023622047244,0.031496062992125984,0.03543307086614173,0.0,0.017716535433070866,0.015748031496062992,0.03543307086614173,0.03346456692913386,0.003937007874015748,0.023622047244094488,0.027559055118110236,0.01968503937007874,0.017716535433070866,0.021653543307086614,0.001968503937007874,0.023622047244094488,0.00984251968503937,0.01968503937007874,0.0,0.0,0.023622047244094488,0.03543307086614173,0.02952755905511811,0.0,0.0,0.03543307086614173,0.021653543307086614,0.025590551181102362,0.0,0.013779527559055118,0.03543307086614173,0.0,0.0,0.011811023622047244,0.0,0.01968503937007874,0.03543307086614173,0.007874015748031496,0.01968503937007874,0.0,0.03543307086614173,0.03346456692913386,0.03346456692913386,0.03543307086614173,0.0,0.03543307086614173
S15_D16 hbo,0.035849056603773584,0.03018867924528302,0.033962264150943396,0.0,0.022641509433962263,0.035849056603773584,0.011320754716981131,0.03018867924528302,0.033962264150943396,0.0,0.016981132075471698,0.01509433962264151,0.035849056603773584,0.03207547169811321,0.0037735849056603774,0.022641509433962263,0.026415094339622643,0.018867924528301886,0.016981132075471698,0.020754716981132074,0.0018867924528301887,0.022641509433962263,0.009433962264150943,0.018867924528301886,0.0,0.0,0.022641509433962263,0.03962264150943396,0.02830188679245283,0.0,0.0,0.03962264150943396,0.020754716981132074,0.024528301886792454,0.0,0.013207547169811321,0.03962264150943396,0.0,0.0,0.011320754716981131,0.0,0.018867924528301886,0.03773584905660377,0.007547169811320755,0.018867924528301886,0.0,0.03962264150943396,0.03207547169811321,0.03207547169811321,0.03773584905660377,0.0,0.03962264150943396
S16_D14 hbo,0.0,0.0,0.0,0.0,0.0,0.0,0.0,0.0,0.0,0.0,0.0,0.0,0.0,0.0,0.0,0.0,0.0,0.0,0.0,0.0,0.0,0.0,0.0,0.0,0.0,0.0,0.0,0.0,0.0,0.0,0.0,0.0,0.0,0.0,0.0,0.0,0.0,0.0,0.0,0.0,0.0,0.0,0.0,0.0,0.0,0.0,0.0,0.0,0.0,0.0,0.0,0.0
S16_D16 hbo,0.03531598513011153,0.02973977695167286,0.03345724907063197,0.0,0.022304832713754646,0.03531598513011153,0.011152416356877323,0.02973977695167286,0.03345724907063197,0.0,0.016728624535315983,0.01486988847583643,0.03531598513011153,0.031598513011152414,0.0037174721189591076,0.022304832713754646,0.026022304832713755,0.01858736059479554,0.016728624535315983,0.020446096654275093,0.0018587360594795538,0.022304832713754646,0.00929368029739777,0.01858736059479554,0.0,0.0,0.022304832713754646,0.040892193308550186,0.027881040892193308,0.0,0.0,0.04275092936802974,0.020446096654275093,0.024163568773234202,0.0,0.013011152416356878,0.04275092936802974,0.0,0.0,0.011152416356877323,0.0,0.01858736059479554,0.03717472118959108,0.007434944237918215,0.01858736059479554,0.0,0.04275092936802974,0.031598513011152414,0.031598513011152414,0.03717472118959108,0.0,0.040892193308550186
