,S1_D1 hbo,S1_D3 hbo,S2_D1 hbo,S2_D2 hbo,S2_D4 hbo,S3_D1 hbo,S3_D3 hbo,S3_D4 hbo,S3_D5 hbo,S4_D2 hbo,S4_D4 hbo,S4_D6 hbo,S4_D11 hbo,S5_D3 hbo,S5_D5 hbo,S5_D7 hbo,S6_D4 hbo,S6_D5 hbo,S6_D6 hbo,S6_D8 hbo,S7_D5 hbo,S7_D7 hbo,S7_D8 hbo,S8_D6 hbo,S8_D8 hbo,S8_D15 hbo,S9_D2 hbo,S9_D9 hbo,S9_D11 hbo,S10_D9 hbo,S10_D10 hbo,S10_D12 hbo,S11_D9 hbo,S11_D11 hbo,S11_D12 hbo,S11_D13 hbo,S12_D10 hbo,S12_D12 hbo,S12_D14 hbo,S13_D6 hbo,S13_D11 hbo,S13_D13 hbo,S13_D15 hbo,S14_D12 hbo,S14_D13 hbo,S14_D14 hbo,S14_D16 hbo,S15_D13 hbo,S15_D15 hbo,S15_D16 hbo,S16_D14 hbo,S16_D16 hbo
S1_D1 hbo,0.16875,0.0,0.059375,0.0,0.0,0.0,0.053125,0.0,0.0,0.01875,0.0,0.0,0.046875,0.0,0.0,0.0,0.0,0.0,0.0,0.0,0.0,0.0,0.0,0.0,0.0,0.0,0.0,0.0,0.0,0.0,0.10625,0.090625,0.0,0.0,0.03125,0.034375,0.0,0.0,0.05,0.034375,0.05625,0.059375,0.0,0.0,0.04375,0.08125,0.0,0.053125,0.0,0.0,0.0,0.0125
S1_D3 hbo,0.0,0.8571428571428571,0.0,0.0,0.0,0.0,0.0,0.0,0.0,0.0,0.0,0.0,0.0,0.0,0.0,0.0,0.0,0.0,0.0,0.0,0.0,0.0,0.0,0.0,0.0,0.0,0.0,0.0,0.0,0.0,0.0,0.0,0.0,0.0,0.0,0.0,0.0,0.0,0.0,0.0,0.0,0.0,0.0,0.0,0.0,0.0,0.0,0.0,0.0,0.0,0.0,0.14285714285714285
S2_D1 hbo,0.04708520179372197,0.0,0.06726457399103139,0.02242152466367713,0.0,0.0,0.033632286995515695,0.02242152466367713,0.02242152466367713,0.02914798206278027,0.006726457399103139,0.0,0.033632286995515695,0.0,0.006726457399103139,0.0,0.006726457399103139,0.02242152466367713,0.0,0.02914798206278027,0.02242152466367713,0.02242152466367713,0.020179372197309416,0.0,0.02914798206278027,0.006726457399103139,0.020179372197309416,0.02914798206278027,0.017937219730941704,0.0,0.04708520179372197,0.04932735426008968,0.006726457399103139,0.0,0.03811659192825112,0.02466367713004484,0.0,0.0,0.020179372197309416,0.03139013452914798,0.033632286995515695,0.033632286995515695,0.0,0.006726457399103139,0.033632286995515695,0.053811659192825115,0.01569506726457399,0.033632286995515695,0.0,0.01569506726457399,0.0,0.03811659192825112
S2_D2 hbo,0.0,0.0,0.0481283422459893,0.0748663101604278,0.0,0.0,0.0,0.058823529411764705,0.08021390374331551,0.0213903743315508,0.0,0.0,0.0,0.0,0.0,0.0,0.0,0.08021390374331551,0.0,0.08021390374331551,0.08021390374331551,0.08021390374331551,0.0481283422459893,0.0,0.08021390374331551,0.0,0.0481283422459893,0.053475935828877004,0.0427807486631016,0.0,0.0,0.0,0.0,0.0,0.0213903743315508,0.0,0.0,0.0,0.0,0.0,0.0,0.0,0.0,0.0,0.0053475935828877,0.0,0.0213903743315508,0.0,0.0,0.0213903743315508,0.0,0.053475935828877004
S2_D4 hbo,0.0,0.0,0.0,0.0,0.0990990990990991,0.0,0.0,0.0,0.0,0.0,0.018018018018018018,0.0,0.0,0.0,0.0,0.10810810810810811,0.0,0.02702702702702703,0.0,0.07207207207207207,0.0,0.10810810810810811,0.06306306306306306,0.0,0.0,0.0,0.0,0.0,0.0,0.08108108108108109,0.0,0.0,0.04504504504504504,0.0,0.0,0.0,0.10810810810810811,0.0,0.05405405405405406,0.0,0.0,0.0,0.0,0.0,0.0,0.0,0.0,0.10810810810810811,0.10810810810810811,0.0,0.0,0.0
S3_D1 hbo,0.08,0.0,0.08,0.0,0.0,0.0,0.08,0.0,0.0,0.04,0.0,0.0,0.04,0.0,0.0,0.0,0.0,0.0,0.0,0.0,0.0,0.0,0.0,0.0,0.0,0.0,0.0,0.0,0.0,0.0,0.08,0.08,0.0,0.0,0.04,0.04,0.0,0.0,0.08,0.08,0.04,0.04,0.0,0.0,0.04,0.08,0.0,0.04,0.0,0.0,0.0,0.04
S3_D3 hbo,0.09004739336492891,0.0,0.07109004739336493,0.0,0.0,0.0,0.08056872037914692,0.0,0.0,0.02843601895734597,0.0,0.0,0.04739336492890995,0.0,0.0,0.0,0.0,0.0,0.0,0.0,0.0,0.0,0.0,0.0,0.0,0.0,0.0,0.0,0.0,0.0,0.09004739336492891,0.09004739336492891,0.0,0.0,0.04739336492890995,0.04739336492890995,0.0,0.0,0.05687203791469194,0.052132701421800945,0.04739336492890995,0.04739336492890995,0.0,0.0,0.04739336492890995,0.09004739336492891,0.0,0.04739336492890995,0.0,0.0,0.0,0.018957345971563982
S3_D4 hbo,0.0,0.0,0.012987012987012988,0.017316017316017316,0.001443001443001443,0.0,0.0,0.049062049062049064,0.017316017316017316,0.005772005772005772,0.01875901875901876,0.03463203463203463,0.03463203463203463,0.031746031746031744,0.0,0.02886002886002886,0.0,0.049062049062049064,0.03463203463203463,0.03607503607503607,0.017316017316017316,0.01875901875901876,0.049062049062049064,0.03463203463203463,0.047619047619047616,0.03463203463203463,0.047619047619047616,0.049062049062049064,0.046176046176046176,0.001443001443001443,0.0,0.0,0.001443001443001443,0.03463203463203463,0.005772005772005772,0.024531024531024532,0.001443001443001443,0.0,0.030303030303030304,0.0,0.0,0.0,0.03463203463203463,0.02886002886002886,0.001443001443001443,0.007215007215007215,0.02886002886002886,0.005772005772005772,0.03607503607503607,0.005772005772005772,0.020202020202020204,0.01443001443001443
S3_D5 hbo,0.0,0.0,0.04390243902439024,0.06829268292682927,0.0,0.0,0.0,0.05365853658536585,0.08780487804878048,0.01951219512195122,0.0,0.0,0.0,0.0,0.0,0.0,0.0,0.09268292682926829,0.0,0.09268292682926829,0.09268292682926829,0.08780487804878048,0.04390243902439024,0.0,0.07317073170731707,0.0,0.04390243902439024,0.04878048780487805,0.03902439024390244,0.0,0.0,0.0,0.0,0.0,0.01951219512195122,0.0,0.0,0.0,0.0,0.0,0.0,0.0,0.0,0.0,0.004878048780487805,0.0,0.01951219512195122,0.0,0.0,0.01951219512195122,0.0,0.04878048780487805
S4_D2 hbo,0.018518518518518517,0.0,0.037037037037037035,0.013227513227513227,0.0,0.0,0.018518518518518517,0.013227513227513227,0.013227513227513227,0.06084656084656084,0.010582010582010581,0.0,0.018518518518518517,0.0,0.037037037037037035,0.0,0.013227513227513227,0.013227513227513227,0.0,0.047619047619047616,0.013227513227513227,0.013227513227513227,0.013227513227513227,0.0,0.031746031746031744,0.023809523809523808,0.013227513227513227,0.03439153439153439,0.013227513227513227,0.0,0.018518518518518517,0.05555555555555555,0.021164021164021163,0.0,0.06613756613756613,0.018518518518518517,0.0,0.0,0.007936507936507936,0.03968253968253968,0.018518518518518517,0.018518518518518517,0.0,0.037037037037037035,0.021164021164021163,0.05555555555555555,0.03439153439153439,0.018518518518518517,0.0,0.047619047619047616,0.0,0.05026455026455026
S4_D4 hbo,0.0,0.0,0.004024144869215292,0.0,0.006036217303822937,0.0,0.0,0.026156941649899398,0.0,0.01006036217303823,0.05835010060362173,0.026156941649899398,0.026156941649899398,0.026156941649899398,0.01006036217303823,0.03219315895372234,0.03219315895372234,0.03219315895372234,0.026156941649899398,0.04024144869215292,0.0,0.006036217303822937,0.03219315895372234,0.026156941649899398,0.03621730382293763,0.03621730382293763,0.026156941649899398,0.03621730382293763,0.026156941649899398,0.006036217303822937,0.0,0.01006036217303823,0.01609657947686117,0.026156941649899398,0.01006036217303823,0.026156941649899398,0.030181086519114688,0.0,0.03219315895372234,0.01006036217303823,0.0,0.0,0.026156941649899398,0.03621730382293763,0.0,0.02012072434607646,0.03621730382293763,0.03420523138832998,0.03219315895372234,0.018108651911468814,0.03621730382293763,0.012072434607645875
S4_D6 hbo,0.0,0.0,0.0,0.0,0.0,0.0,0.0,0.040421792618629174,0.0,0.0,0.0210896309314587,0.050966608084358524,0.04569420035149385,0.03866432337434095,0.0,0.033391915641476276,0.0,0.03690685413005272,0.05272407732864675,0.0210896309314587,0.0,0.0,0.050966608084358524,0.05272407732864675,0.03690685413005272,0.050966608084358524,0.05272407732864675,0.04569420035149385,0.05272407732864675,0.0,0.0,0.0,0.0,0.04745166959578207,0.0,0.029876977152899824,0.0,0.0,0.0351493848857645,0.0,0.0,0.0,0.05272407732864675,0.0351493848857645,0.0,0.008787346221441126,0.028119507908611598,0.005272407732864675,0.0492091388400703,0.0,0.02460456942003515,0.0
S4_D11 hbo,0.021361815754339118,0.0,0.018691588785046728,0.0,0.0,0.0,0.012016021361815754,0.030707610146862484,0.0,0.00801068090787717,0.01602136181575434,0.036048064085447265,0.05473965287049399,0.029372496662216287,0.0,0.025367156208277702,0.0,0.028037383177570093,0.036048064085447265,0.01602136181575434,0.0,0.0,0.036048064085447265,0.036048064085447265,0.028037383177570093,0.036048064085447265,0.036048064085447265,0.03471295060080107,0.036048064085447265,0.0,0.021361815754339118,0.017356475300400534,0.0,0.036048064085447265,0.01335113484646195,0.037383177570093455,0.0,0.0,0.030707610146862484,0.009345794392523364,0.021361815754339118,0.021361815754339118,0.036048064085447265,0.0267022696929239,0.018691588785046728,0.028037383177570093,0.021361815754339118,0.025367156208277702,0.036048064085447265,0.0,0.018691588785046728,0.0053404539385847796
S5_D3 hbo,0.0,0.0,0.0,0.0,0.0,0.0,0.0,0.04056437389770723,0.0,0.0,0.021164021164021163,0.04056437389770723,0.04056437389770723,0.07760141093474426,0.0,0.03527336860670194,0.0,0.037037037037037035,0.04056437389770723,0.021164021164021163,0.0,0.007054673721340388,0.04056437389770723,0.04056437389770723,0.037037037037037035,0.04056437389770723,0.04056437389770723,0.04056437389770723,0.04056437389770723,0.0,0.0,0.0,0.0,0.04056437389770723,0.0,0.029982363315696647,0.037037037037037035,0.01763668430335097,0.04938271604938271,0.0,0.0,0.0,0.04056437389770723,0.03527336860670194,0.0,0.008818342151675485,0.02821869488536155,0.005291005291005291,0.04056437389770723,0.0,0.024691358024691357,0.0
S5_D5 hbo,0.0,0.0,0.00980392156862745,0.0,0.0,0.0,0.0,0.0,0.0,0.06372549019607843,0.0196078431372549,0.0,0.0,0.0,0.09803921568627451,0.0,0.024509803921568627,0.0,0.0,0.06372549019607843,0.0,0.0,0.0,0.0,0.03431372549019608,0.04411764705882353,0.0,0.0392156862745098,0.0,0.0,0.0,0.10294117647058823,0.0392156862745098,0.0,0.10294117647058823,0.0,0.0,0.0,0.0,0.0392156862745098,0.0,0.0,0.0,0.06862745098039216,0.0,0.06862745098039216,0.04411764705882353,0.0,0.0,0.08823529411764706,0.0,0.049019607843137254
S5_D7 hbo,0.0,0.0,0.0,0.0,0.01794453507340946,0.0,0.0,0.03262642740619902,0.0,0.0,0.022838499184339316,0.03262642740619902,0.03262642740619902,0.03588907014681892,0.0,0.0734094616639478,0.0,0.037520391517128875,0.03262642740619902,0.03262642740619902,0.0,0.04241435562805873,0.04404567699836868,0.03262642740619902,0.03262642740619902,0.03262642740619902,0.03262642740619902,0.03262642740619902,0.03262642740619902,0.01468189233278956,0.0,0.0,0.008156606851549755,0.03262642740619902,0.0,0.02773246329526917,0.026101141924959218,0.0032626427406199023,0.04567699836867863,0.0,0.0,0.0,0.03262642740619902,0.03262642740619902,0.0,0.008156606851549755,0.026101141924959218,0.03262642740619902,0.053833605220228384,0.0,0.022838499184339316,0.0
S6_D4 hbo,0.0,0.0,0.01282051282051282,0.0,0.0,0.0,0.0,0.0,0.0,0.038461538461538464,0.09615384615384616,0.0,0.0,0.0,0.038461538461538464,0.0,0.10256410256410256,0.0,0.0,0.038461538461538464,0.0,0.0,0.0,0.0,0.038461538461538464,0.038461538461538464,0.0,0.038461538461538464,0.0,0.0,0.0,0.038461538461538464,0.038461538461538464,0.0,0.038461538461538464,0.0,0.07692307692307693,0.0,0.0,0.038461538461538464,0.0,0.0,0.0,0.038461538461538464,0.0,0.038461538461538464,0.038461538461538464,0.07051282051282051,0.0,0.0641025641025641,0.03205128205128205,0.04487179487179487
S6_D5 hbo,0.0,0.0,0.012032085561497326,0.01871657754010695,0.0053475935828877,0.0,0.0,0.04411764705882353,0.02406417112299465,0.0053475935828877,0.01871657754010695,0.029411764705882353,0.029411764705882353,0.029411764705882353,0.0,0.03074866310160428,0.0,0.06016042780748663,0.029411764705882353,0.0481283422459893,0.029411764705882353,0.029411764705882353,0.04679144385026738,0.029411764705882353,0.0481283422459893,0.029411764705882353,0.04144385026737968,0.0427807486631016,0.040106951871657755,0.0053475935828877,0.0,0.0,0.0053475935828877,0.029411764705882353,0.0053475935828877,0.022727272727272728,0.0053475935828877,0.0,0.03208556149732621,0.0,0.0,0.0,0.029411764705882353,0.026737967914438502,0.001336898395721925,0.0066844919786096255,0.026737967914438502,0.009358288770053475,0.034759358288770054,0.0053475935828877,0.01871657754010695,0.013368983957219251
S6_D6 hbo,0.0,0.0,0.0,0.0,0.0,0.0,0.0,0.04006968641114982,0.0,0.0,0.020905923344947737,0.050522648083623695,0.04529616724738676,0.03832752613240418,0.0,0.033101045296167246,0.0,0.036585365853658534,0.05574912891986063,0.020905923344947737,0.0,0.0,0.050522648083623695,0.05400696864111498,0.036585365853658534,0.050522648083623695,0.05400696864111498,0.04529616724738676,0.05226480836236934,0.0,0.0,0.0,0.0,0.047038327526132406,0.0,0.029616724738675958,0.0,0.0,0.03484320557491289,0.0,0.0,0.0,0.05400696864111498,0.03484320557491289,0.0,0.008710801393728223,0.027874564459930314,0.005226480836236934,0.04878048780487805,0.0,0.024390243902439025,0.0
S6_D8 hbo,0.0,0.0,0.01371571072319202,0.017456359102244388,0.011221945137157107,0.0,0.0,0.029925187032418952,0.022443890274314215,0.02119700748129676,0.022443890274314215,0.016209476309226933,0.016209476309226933,0.016209476309226933,0.017456359102244388,0.02743142144638404,0.006234413965087282,0.046134663341645885,0.016209476309226933,0.06608478802992519,0.026184538653366583,0.03366583541147132,0.03615960099750624,0.016209476309226933,0.043640897755610975,0.02743142144638404,0.02743142144638404,0.03865336658354115,0.026184538653366583,0.011221945137157107,0.0,0.017456359102244388,0.016209476309226933,0.016209476309226933,0.022443890274314215,0.016209476309226933,0.011221945137157107,0.0,0.02369077306733167,0.00997506234413965,0.0,0.0,0.016209476309226933,0.03366583541147132,0.0012468827930174563,0.02369077306733167,0.032418952618453865,0.014962593516209476,0.02743142144638404,0.022443890274314215,0.016209476309226933,0.02493765586034913
S7_D5 hbo,0.0,0.0,0.041666666666666664,0.06481481481481481,0.0,0.0,0.0,0.05092592592592592,0.08333333333333333,0.018518518518518517,0.0,0.0,0.0,0.0,0.0,0.0,0.0,0.09722222222222222,0.0,0.09259259259259259,0.125,0.08333333333333333,0.041666666666666664,0.0,0.06944444444444445,0.0,0.041666666666666664,0.046296296296296294,0.037037037037037035,0.0,0.0,0.0,0.0,0.0,0.018518518518518517,0.0,0.0,0.0,0.0,0.0,0.0,0.0,0.0,0.0,0.004629629629629629,0.0,0.018518518518518517,0.0,0.0,0.018518518518518517,0.0,0.046296296296296294
S7_D7 hbo,0.0,0.0,0.02406417112299465,0.0374331550802139,0.029411764705882353,0.0,0.0,0.029411764705882353,0.0481283422459893,0.0106951871657754,0.0053475935828877,0.0,0.0,0.013368983957219251,0.0,0.06951871657754011,0.0,0.058823529411764705,0.0,0.07219251336898395,0.05080213903743316,0.12299465240641712,0.0427807486631016,0.0,0.040106951871657755,0.0,0.02406417112299465,0.026737967914438502,0.0213903743315508,0.02406417112299465,0.0,0.0,0.013368983957219251,0.0,0.0106951871657754,0.0,0.05080213903743316,0.013368983957219251,0.029411764705882353,0.0,0.0,0.0,0.0,0.0,0.00267379679144385,0.0,0.0106951871657754,0.045454545454545456,0.034759358288770054,0.0106951871657754,0.0,0.026737967914438502
S7_D8 hbo,0.0,0.0,0.011138613861386138,0.012376237623762377,0.009900990099009901,0.0,0.0,0.04084158415841584,0.012376237623762377,0.0049504950495049506,0.017326732673267328,0.03589108910891089,0.03217821782178218,0.027227722772277228,0.0,0.03341584158415842,0.0,0.04207920792079208,0.03712871287128713,0.03712871287128713,0.012376237623762377,0.022277227722772276,0.055693069306930694,0.03712871287128713,0.038366336633663366,0.03589108910891089,0.04826732673267327,0.04455445544554455,0.04702970297029703,0.009900990099009901,0.0,0.0,0.006188118811881188,0.03341584158415842,0.0049504950495049506,0.02103960396039604,0.009900990099009901,0.0,0.03217821782178218,0.0,0.0,0.0,0.03712871287128713,0.024752475247524754,0.0012376237623762376,0.006188118811881188,0.024752475247524754,0.013613861386138614,0.04455445544554455,0.0049504950495049506,0.017326732673267328,0.012376237623762377
S8_D6 hbo,0.0,0.0,0.0,0.0,0.0,0.0,0.0,0.04006968641114982,0.0,0.0,0.020905923344947737,0.050522648083623695,0.04529616724738676,0.03832752613240418,0.0,0.033101045296167246,0.0,0.036585365853658534,0.05574912891986063,0.020905923344947737,0.0,0.0,0.050522648083623695,0.05400696864111498,0.036585365853658534,0.050522648083623695,0.05400696864111498,0.04529616724738676,0.05226480836236934,0.0,0.0,0.0,0.0,0.047038327526132406,0.0,0.029616724738675958,0.0,0.0,0.03484320557491289,0.0,0.0,0.0,0.05400696864111498,0.03484320557491289,0.0,0.008710801393728223,0.027874564459930314,0.005226480836236934,0.04878048780487805,0.0,0.024390243902439025,0.0
S8_D8 hbo,0.0,0.0,0.013580246913580247,0.01728395061728395,0.0,0.0,0.0,0.040740740740740744,0.019753086419753086,0.014814814814814815,0.019753086419753086,0.027160493827160494,0.027160493827160494,0.027160493827160494,0.009876543209876543,0.02345679012345679,0.006172839506172839,0.04567901234567901,0.027160493827160494,0.044444444444444446,0.019753086419753086,0.019753086419753086,0.03827160493827161,0.027160493827160494,0.05308641975308642,0.037037037037037035,0.03827160493827161,0.04938271604938271,0.037037037037037035,0.0,0.0,0.009876543209876543,0.009876543209876543,0.027160493827160494,0.014814814814814815,0.020987654320987655,0.0,0.0,0.024691358024691357,0.009876543209876543,0.0,0.0,0.027160493827160494,0.0345679012345679,0.0012345679012345679,0.016049382716049384,0.0345679012345679,0.003703703703703704,0.027160493827160494,0.014814814814814815,0.01728395061728395,0.022222222222222223
S8_D15 hbo,0.0,0.0,0.0027816411682892906,0.0,0.0,0.0,0.0,0.031988873435326845,0.0,0.013908205841446454,0.022253129346314324,0.04033379694019471,0.03616133518776078,0.030598052851182198,0.013908205841446454,0.02642559109874826,0.006954102920723227,0.02920723226703755,0.04172461752433936,0.030598052851182198,0.0,0.0,0.04033379694019471,0.04172461752433936,0.03894297635605007,0.05285118219749652,0.04172461752433936,0.04728789986091794,0.04172461752433936,0.0,0.0,0.013908205841446454,0.011126564673157162,0.037552155771905425,0.013908205841446454,0.02364394993045897,0.0,0.0,0.027816411682892908,0.011126564673157162,0.0,0.0,0.04172461752433936,0.04172461752433936,0.0,0.02086230876216968,0.03477051460361613,0.004172461752433936,0.03894297635605007,0.013908205841446454,0.019471488178025034,0.013908205841446454
S9_D2 hbo,0.0,0.0,0.012396694214876033,0.013774104683195593,0.0,0.0,0.0,0.045454545454545456,0.013774104683195593,0.005509641873278237,0.01652892561983471,0.03994490358126722,0.03581267217630854,0.030303030303030304,0.0,0.026170798898071626,0.0,0.04269972451790634,0.0440771349862259,0.030303030303030304,0.013774104683195593,0.013774104683195593,0.05234159779614325,0.04269972451790634,0.04269972451790634,0.03994490358126722,0.05509641873278237,0.049586776859504134,0.05234159779614325,0.0,0.0,0.0,0.0,0.0371900826446281,0.005509641873278237,0.023415977961432508,0.0,0.0,0.027548209366391185,0.0,0.0,0.0,0.04269972451790634,0.027548209366391185,0.0013774104683195593,0.006887052341597796,0.027548209366391185,0.004132231404958678,0.03856749311294766,0.005509641873278237,0.01928374655647383,0.013774104683195593
S9_D9 hbo,0.0,0.0,0.012971698113207548,0.012971698113207548,0.0,0.0,0.0,0.04009433962264151,0.012971698113207548,0.015330188679245283,0.018867924528301886,0.031839622641509434,0.030660377358490566,0.025943396226415096,0.01061320754716981,0.02240566037735849,0.00589622641509434,0.03773584905660377,0.031839622641509434,0.03773584905660377,0.012971698113207548,0.012971698113207548,0.04245283018867924,0.031839622641509434,0.045990566037735846,0.04245283018867924,0.04245283018867924,0.05188679245283019,0.041273584905660375,0.0,0.0,0.01061320754716981,0.009433962264150943,0.031839622641509434,0.015330188679245283,0.020047169811320754,0.0,0.0,0.02358490566037736,0.009433962264150943,0.0,0.0,0.031839622641509434,0.03419811320754717,0.0011792452830188679,0.01650943396226415,0.03419811320754717,0.003537735849056604,0.031839622641509434,0.015330188679245283,0.01650943396226415,0.02240566037735849
S9_D11 hbo,0.0,0.0,0.012587412587412588,0.012587412587412588,0.0,0.0,0.0,0.044755244755244755,0.012587412587412588,0.005594405594405594,0.016783216783216783,0.04055944055944056,0.03636363636363636,0.03076923076923077,0.0,0.026573426573426574,0.0,0.04195804195804196,0.043356643356643354,0.02937062937062937,0.012587412587412588,0.012587412587412588,0.05314685314685315,0.043356643356643354,0.04195804195804196,0.04055944055944056,0.055944055944055944,0.04895104895104895,0.05314685314685315,0.0,0.0,0.0,0.0,0.03776223776223776,0.005594405594405594,0.023776223776223775,0.0,0.0,0.027972027972027972,0.0,0.0,0.0,0.043356643356643354,0.027972027972027972,0.0013986013986013986,0.006993006993006993,0.027972027972027972,0.004195804195804196,0.039160839160839164,0.005594405594405594,0.019580419580419582,0.012587412587412588
S10_D9 hbo,0.0,0.0,0.0,0.0,0.1,0.0,0.0,0.0,0.0,0.0,0.02,0.0,0.0,0.0,0.0,0.1,0.0,0.03,0.0,0.08,0.0,0.1,0.07,0.0,0.0,0.0,0.0,0.0,0.0,0.09,0.0,0.0,0.05,0.0,0.0,0.0,0.1,0.0,0.06,0.0,0.0,0.0,0.0,0.0,0.0,0.0,0.0,0.1,0.1,0.0,0.0,0.0
S10_D10 hbo,0.11371237458193979,0.0,0.06354515050167224,0.0,0.0,0.0,0.056856187290969896,0.0,0.0,0.020066889632107024,0.0,0.0,0.05016722408026756,0.0,0.0,0.0,0.0,0.0,0.0,0.0,0.0,0.0,0.0,0.0,0.0,0.0,0.0,0.0,0.0,0.0,0.12709030100334448,0.09698996655518395,0.0,0.0,0.033444816053511704,0.03678929765886288,0.0,0.0,0.04013377926421405,0.03678929765886288,0.06020066889632107,0.06020066889632107,0.0,0.0,0.046822742474916385,0.08695652173913043,0.0,0.056856187290969896,0.0,0.0,0.0,0.013377926421404682
S10_D12 hbo,0.06276150627615062,0.0,0.043933054393305436,0.0,0.0,0.0,0.03556485355648536,0.0,0.0,0.0397489539748954,0.008368200836820083,0.0,0.029288702928870293,0.0,0.04184100418410042,0.0,0.010460251046025104,0.0,0.0,0.027196652719665274,0.0,0.0,0.0,0.0,0.014644351464435146,0.01882845188284519,0.0,0.016736401673640166,0.0,0.0,0.06485355648535565,0.10669456066945607,0.016736401673640166,0.0,0.06485355648535565,0.02301255230125523,0.0,0.0,0.02510460251046025,0.0397489539748954,0.029288702928870293,0.029288702928870293,0.0,0.029288702928870293,0.029288702928870293,0.07740585774058577,0.01882845188284519,0.029288702928870293,0.0,0.03765690376569038,0.0,0.029288702928870293
S11_D9 hbo,0.0,0.0,0.009478672985781991,0.0,0.02843601895734597,0.0,0.0,0.0,0.0,0.04265402843601896,0.02843601895734597,0.0,0.0,0.0,0.04265402843601896,0.02843601895734597,0.023696682464454975,0.014218009478672985,0.0,0.07109004739336493,0.0,0.02843601895734597,0.02843601895734597,0.0,0.03317535545023697,0.04265402843601896,0.0,0.037914691943127965,0.0,0.02843601895734597,0.0,0.04265402843601896,0.061611374407582936,0.0,0.04265402843601896,0.0,0.02843601895734597,0.0,0.02843601895734597,0.037914691943127965,0.0,0.0,0.0,0.04265402843601896,0.0,0.04265402843601896,0.04265402843601896,0.02843601895734597,0.02843601895734597,0.04265402843601896,0.0,0.04265402843601896
S11_D11 hbo,0.0,0.0,0.0,0.0,0.0,0.0,0.0,0.04136690647482014,0.0,0.0,0.02158273381294964,0.050359712230215826,0.046762589928057555,0.039568345323741004,0.0,0.0341726618705036,0.0,0.03776978417266187,0.050359712230215826,0.02158273381294964,0.0,0.0,0.050359712230215826,0.050359712230215826,0.03776978417266187,0.050359712230215826,0.050359712230215826,0.046762589928057555,0.050359712230215826,0.0,0.0,0.0,0.0,0.048561151079136694,0.0,0.030575539568345324,0.0,0.0,0.03597122302158273,0.0,0.0,0.0,0.050359712230215826,0.03597122302158273,0.0,0.008992805755395683,0.02877697841726619,0.00539568345323741,0.050359712230215826,0.0,0.025179856115107913,0.0
S11_D12 hbo,0.024336283185840708,0.0,0.03982300884955752,0.011061946902654867,0.0,0.0,0.01991150442477876,0.011061946902654867,0.011061946902654867,0.05088495575221239,0.008849557522123894,0.0,0.024336283185840708,0.0,0.04424778761061947,0.0,0.011061946902654867,0.011061946902654867,0.0,0.03982300884955752,0.011061946902654867,0.011061946902654867,0.011061946902654867,0.0,0.02654867256637168,0.01991150442477876,0.011061946902654867,0.028761061946902654,0.011061946902654867,0.0,0.024336283185840708,0.07300884955752213,0.017699115044247787,0.0,0.07743362831858407,0.024336283185840708,0.0,0.0,0.00663716814159292,0.033185840707964605,0.024336283185840708,0.024336283185840708,0.0,0.030973451327433628,0.02654867256637168,0.05530973451327434,0.028761061946902654,0.024336283185840708,0.0,0.048672566371681415,0.0,0.0420353982300885
S11_D13 hbo,0.02030456852791878,0.0,0.02030456852791878,0.0,0.0,0.0,0.015228426395939087,0.030456852791878174,0.0,0.01015228426395939,0.02030456852791878,0.030456852791878174,0.050761421319796954,0.030456852791878174,0.0,0.030456852791878174,0.0,0.030456852791878174,0.030456852791878174,0.02030456852791878,0.0,0.0,0.030456852791878174,0.030456852791878174,0.030456852791878174,0.030456852791878174,0.030456852791878174,0.030456852791878174,0.030456852791878174,0.0,0.02030456852791878,0.02030456852791878,0.0,0.030456852791878174,0.01692047377326565,0.047377326565143825,0.0,0.0,0.03553299492385787,0.011844331641285956,0.02030456852791878,0.02030456852791878,0.030456852791878174,0.030456852791878174,0.02030456852791878,0.028764805414551606,0.02707275803722504,0.025380710659898477,0.030456852791878174,0.0,0.023688663282571912,0.00676818950930626
S12_D10 hbo,0.0,0.0,0.0,0.0,0.043137254901960784,0.0,0.0,0.0,0.0,0.0,0.050980392156862744,0.0,0.0,0.08627450980392157,0.0,0.06274509803921569,0.043137254901960784,0.011764705882352941,0.0,0.03137254901960784,0.0,0.07450980392156863,0.027450980392156862,0.0,0.0,0.0,0.0,0.0,0.0,0.03529411764705882,0.0,0.0,0.0196078431372549,0.0,0.0,0.0,0.20784313725490197,0.0392156862745098,0.054901960784313725,0.0,0.0,0.0,0.0,0.0,0.0,0.0,0.011764705882352941,0.10196078431372549,0.054901960784313725,0.0196078431372549,0.0196078431372549,0.00392156862745098
S12_D12 hbo,0.0,0.0,0.0,0.0,0.0,0.0,0.0,0.0,0.0,0.0,0.0,0.0,0.0,0.16666666666666666,0.0,0.015151515151515152,0.0,0.0,0.0,0.0,0.0,0.06060606060606061,0.0,0.0,0.0,0.0,0.0,0.0,0.0,0.0,0.0,0.0,0.0,0.0,0.0,0.0,0.16666666666666666,0.3333333333333333,0.12121212121212122,0.0,0.0,0.0,0.0,0.0,0.0,0.0,0.0,0.0,0.0,0.045454545454545456,0.0,0.09090909090909091
S12_D14 hbo,0.02564102564102564,0.0,0.012145748987854251,0.0,0.009446693657219974,0.0,0.016194331983805668,0.02834008097165992,0.0,0.005398110661268556,0.018893387314439947,0.02834008097165992,0.033738191632928474,0.04048582995951417,0.0,0.03643724696356275,0.0,0.032388663967611336,0.02834008097165992,0.02564102564102564,0.0,0.014844804318488529,0.037786774628879895,0.02834008097165992,0.02834008097165992,0.02834008097165992,0.02834008097165992,0.02834008097165992,0.02834008097165992,0.009446693657219974,0.018893387314439947,0.018893387314439947,0.006747638326585695,0.02834008097165992,0.005398110661268556,0.02834008097165992,0.021592442645074223,0.012145748987854251,0.07692307692307693,0.010796221322537112,0.005398110661268556,0.005398110661268556,0.02834008097165992,0.02699055330634278,0.005398110661268556,0.024291497975708502,0.021592442645074223,0.018893387314439947,0.037786774628879895,0.0,0.018893387314439947,0.005398110661268556
S13_D6 hbo,0.04276315789473684,0.0,0.049342105263157895,0.0,0.0,0.0,0.04276315789473684,0.0,0.0,0.049342105263157895,0.013157894736842105,0.0,0.02631578947368421,0.0,0.029605263157894735,0.0,0.01644736842105263,0.0,0.0,0.029605263157894735,0.0,0.0,0.0,0.0,0.023026315789473683,0.029605263157894735,0.0,0.02631578947368421,0.0,0.0,0.04276315789473684,0.07236842105263158,0.02631578947368421,0.0,0.05592105263157895,0.02631578947368421,0.0,0.0,0.02631578947368421,0.0625,0.02631578947368421,0.02631578947368421,0.0,0.029605263157894735,0.02631578947368421,0.07236842105263158,0.029605263157894735,0.02631578947368421,0.0,0.029605263157894735,0.0,0.04276315789473684
S13_D11 hbo,0.0892018779342723,0.0,0.06572769953051644,0.0,0.0,0.0,0.04225352112676056,0.0,0.0,0.028169014084507043,0.0,0.0,0.07042253521126761,0.0,0.0,0.0,0.0,0.0,0.0,0.0,0.0,0.0,0.0,0.0,0.0,0.0,0.0,0.0,0.0,0.0,0.07981220657276995,0.06103286384976526,0.0,0.0,0.046948356807511735,0.051643192488262914,0.0,0.0,0.014084507042253521,0.03286384976525822,0.08450704225352113,0.0892018779342723,0.0,0.0,0.06572769953051644,0.07981220657276995,0.0,0.07981220657276995,0.0,0.0,0.0,0.018779342723004695
S13_D13 hbo,0.0892018779342723,0.0,0.06572769953051644,0.0,0.0,0.0,0.04225352112676056,0.0,0.0,0.028169014084507043,0.0,0.0,0.07042253521126761,0.0,0.0,0.0,0.0,0.0,0.0,0.0,0.0,0.0,0.0,0.0,0.0,0.0,0.0,0.0,0.0,0.0,0.07981220657276995,0.06103286384976526,0.0,0.0,0.046948356807511735,0.051643192488262914,0.0,0.0,0.014084507042253521,0.03286384976525822,0.08450704225352113,0.0892018779342723,0.0,0.0,0.06572769953051644,0.07981220657276995,0.0,0.07981220657276995,0.0,0.0,0.0,0.018779342723004695
S13_D15 hbo,0.0,0.0,0.0,0.0,0.0,0.0,0.0,0.04006968641114982,0.0,0.0,0.020905923344947737,0.050522648083623695,0.04529616724738676,0.03832752613240418,0.0,0.033101045296167246,0.0,0.036585365853658534,0.05574912891986063,0.020905923344947737,0.0,0.0,0.050522648083623695,0.05400696864111498,0.036585365853658534,0.050522648083623695,0.05400696864111498,0.04529616724738676,0.05226480836236934,0.0,0.0,0.0,0.0,0.047038327526132406,0.0,0.029616724738675958,0.0,0.0,0.03484320557491289,0.0,0.0,0.0,0.05400696864111498,0.03484320557491289,0.0,0.008710801393728223,0.027874564459930314,0.005226480836236934,0.04878048780487805,0.0,0.024390243902439025,0.0
S14_D12 hbo,0.0,0.0,0.00303951367781155,0.0,0.0,0.0,0.0,0.031914893617021274,0.0,0.019756838905775075,0.0243161094224924,0.031914893617021274,0.031914893617021274,0.031914893617021274,0.022796352583586626,0.028875379939209727,0.007598784194528876,0.031914893617021274,0.031914893617021274,0.037993920972644375,0.0,0.0,0.031914893617021274,0.031914893617021274,0.0425531914893617,0.04559270516717325,0.031914893617021274,0.044072948328267476,0.031914893617021274,0.0,0.0,0.022796352583586626,0.0121580547112462,0.031914893617021274,0.022796352583586626,0.025835866261398176,0.0,0.0,0.030395136778115502,0.0121580547112462,0.0,0.0,0.031914893617021274,0.05167173252279635,0.0,0.028875379939209727,0.037993920972644375,0.004559270516717325,0.031914893617021274,0.022796352583586626,0.02127659574468085,0.015197568389057751
S14_D13 hbo,0.06437768240343347,0.0,0.06866952789699571,0.008583690987124463,0.0,0.0,0.03862660944206009,0.008583690987124463,0.008583690987124463,0.034334763948497854,0.0,0.0,0.06437768240343347,0.0,0.0,0.0,0.0,0.008583690987124463,0.0,0.008583690987124463,0.008583690987124463,0.008583690987124463,0.008583690987124463,0.0,0.008583690987124463,0.0,0.008583690987124463,0.008583690987124463,0.008583690987124463,0.0,0.06437768240343347,0.055793991416309016,0.0,0.0,0.05150214592274678,0.04721030042918455,0.0,0.0,0.012875536480686695,0.030042918454935622,0.06437768240343347,0.06437768240343347,0.0,0.0,0.06437768240343347,0.06437768240343347,0.008583690987124463,0.06437768240343347,0.0,0.008583690987124463,0.0,0.02575107296137339
S14_D14 hbo,0.0457516339869281,0.0,0.03431372549019608,0.0,0.0,0.0,0.027777777777777776,0.00980392156862745,0.0,0.03104575163398693,0.016339869281045753,0.00980392156862745,0.03431372549019608,0.00980392156862745,0.024509803921568627,0.00980392156862745,0.008169934640522876,0.00980392156862745,0.00980392156862745,0.03104575163398693,0.0,0.0,0.00980392156862745,0.00980392156862745,0.021241830065359478,0.024509803921568627,0.00980392156862745,0.02287581699346405,0.00980392156862745,0.0,0.04411764705882353,0.06209150326797386,0.013071895424836602,0.00980392156862745,0.04084967320261438,0.027777777777777776,0.0,0.0,0.029411764705882353,0.03104575163398693,0.029411764705882353,0.029411764705882353,0.00980392156862745,0.032679738562091505,0.02287581699346405,0.07352941176470588,0.024509803921568627,0.032679738562091505,0.00980392156862745,0.024509803921568627,0.00980392156862745,0.02287581699346405
S14_D16 hbo,0.0,0.0,0.010819165378670788,0.0077279752704791345,0.0,0.0,0.0,0.03400309119010819,0.0077279752704791345,0.021638330757341576,0.02472952086553323,0.02627511591962906,0.02627511591962906,0.02627511591962906,0.015455950540958269,0.02627511591962906,0.0077279752704791345,0.03400309119010819,0.02627511591962906,0.04173106646058733,0.0077279752704791345,0.0077279752704791345,0.03400309119010819,0.02627511591962906,0.04482225656877898,0.0401854714064915,0.03400309119010819,0.04636785162287481,0.03400309119010819,0.0,0.0,0.015455950540958269,0.012364760432766615,0.02627511591962906,0.021638330757341576,0.02627511591962906,0.0030911901081916537,0.0,0.02627511591962906,0.012364760432766615,0.0,0.0,0.02627511591962906,0.04173106646058733,0.0015455950540958269,0.023183925811437404,0.05100463678516229,0.00463678516228748,0.027820710973724884,0.023183925811437404,0.021638330757341576,0.023183925811437404
S15_D13 hbo,0.03564356435643564,0.0,0.027722772277227723,0.0,0.02178217821782178,0.0,0.01782178217821782,0.007920792079207921,0.0,0.011881188118811881,0.033663366336633666,0.007920792079207921,0.03762376237623762,0.007920792079207921,0.0,0.04356435643564356,0.02178217821782178,0.013861386138613862,0.007920792079207921,0.023762376237623763,0.0,0.03564356435643564,0.02178217821782178,0.007920792079207921,0.007920792079207921,0.007920792079207921,0.007920792079207921,0.007920792079207921,0.007920792079207921,0.01782178217821782,0.033663366336633666,0.02574257425742574,0.009900990099009901,0.007920792079207921,0.019801980198019802,0.0297029702970297,0.05148514851485148,0.0,0.02574257425742574,0.013861386138613862,0.03564356435643564,0.03564356435643564,0.007920792079207921,0.007920792079207921,0.027722772277227723,0.041584158415841586,0.007920792079207921,0.09900990099009901,0.033663366336633666,0.013861386138613862,0.01782178217821782,0.009900990099009901
S15_D15 hbo,0.0,0.0,0.0,0.0,0.015942028985507246,0.0,0.0,0.03333333333333333,0.0,0.0,0.020289855072463767,0.042028985507246375,0.03768115942028986,0.03188405797101449,0.0,0.04782608695652174,0.0,0.034782608695652174,0.042028985507246375,0.028985507246376812,0.0,0.020289855072463767,0.05217391304347826,0.042028985507246375,0.030434782608695653,0.042028985507246375,0.042028985507246375,0.03768115942028986,0.042028985507246375,0.013043478260869565,0.0,0.0,0.007246376811594203,0.0391304347826087,0.0,0.02463768115942029,0.02318840579710145,0.0,0.03768115942028986,0.0,0.0,0.0,0.042028985507246375,0.028985507246376812,0.0,0.007246376811594203,0.02608695652173913,0.02463768115942029,0.06086956521739131,0.0014492753623188406,0.020289855072463767,0.0
S15_D16 hbo,0.0,0.0,0.02,0.014285714285714285,0.0,0.0,0.0,0.014285714285714285,0.014285714285714285,0.04857142857142857,0.025714285714285714,0.0,0.0,0.0,0.054285714285714284,0.0,0.02857142857142857,0.014285714285714285,0.0,0.05142857142857143,0.014285714285714285,0.014285714285714285,0.014285714285714285,0.0,0.03428571428571429,0.025714285714285714,0.014285714285714285,0.037142857142857144,0.014285714285714285,0.0,0.0,0.054285714285714284,0.022857142857142857,0.0,0.06571428571428571,0.0,0.02,0.011428571428571429,0.0,0.022857142857142857,0.0,0.0,0.0,0.04,0.002857142857142857,0.04,0.04285714285714286,0.02,0.002857142857142857,0.12857142857142856,0.014285714285714285,0.05714285714285714
S16_D14 hbo,0.0,0.0,0.0,0.0,0.0,0.0,0.0,0.0379746835443038,0.0,0.0,0.04556962025316456,0.0379746835443038,0.0379746835443038,0.0379746835443038,0.0,0.0379746835443038,0.015189873417721518,0.0379746835443038,0.0379746835443038,0.030379746835443037,0.0,0.0,0.0379746835443038,0.0379746835443038,0.0379746835443038,0.0379746835443038,0.0379746835443038,0.0379746835443038,0.0379746835443038,0.0,0.0,0.0,0.0,0.0379746835443038,0.0,0.0379746835443038,0.015189873417721518,0.0,0.0379746835443038,0.0,0.0,0.0,0.0379746835443038,0.0379746835443038,0.0,0.012658227848101266,0.0379746835443038,0.02278481012658228,0.0379746835443038,0.010126582278481013,0.04810126582278481,0.002531645569620253
S16_D16 hbo,0.011467889908256881,0.009174311926605505,0.03669724770642202,0.02522935779816514,0.0,0.0,0.011467889908256881,0.02522935779816514,0.02522935779816514,0.045871559633027525,0.013761467889908258,0.0,0.011467889908256881,0.0,0.02522935779816514,0.0,0.016055045871559634,0.02522935779816514,0.0,0.05045871559633028,0.02522935779816514,0.02522935779816514,0.020642201834862386,0.0,0.04128440366972477,0.020642201834862386,0.020642201834862386,0.04128440366972477,0.01834862385321101,0.0,0.011467889908256881,0.03669724770642202,0.01834862385321101,0.0,0.045871559633027525,0.011467889908256881,0.0045871559633027525,0.016055045871559634,0.006880733944954129,0.02981651376146789,0.011467889908256881,0.011467889908256881,0.0,0.02522935779816514,0.013761467889908258,0.03669724770642202,0.02981651376146789,0.016055045871559634,0.0,0.045871559633027525,0.0045871559633027525,0.0779816513761468
