,S1_D1 hbo,S1_D3 hbo,S2_D1 hbo,S2_D2 hbo,S2_D4 hbo,S3_D1 hbo,S3_D3 hbo,S3_D4 hbo,S3_D5 hbo,S4_D2 hbo,S4_D4 hbo,S4_D6 hbo,S4_D11 hbo,S5_D3 hbo,S5_D5 hbo,S5_D7 hbo,S6_D4 hbo,S6_D5 hbo,S6_D6 hbo,S6_D8 hbo,S7_D5 hbo,S7_D7 hbo,S7_D8 hbo,S8_D6 hbo,S8_D8 hbo,S8_D15 hbo,S9_D2 hbo,S9_D9 hbo,S9_D11 hbo,S10_D9 hbo,S10_D10 hbo,S10_D12 hbo,S11_D9 hbo,S11_D11 hbo,S11_D12 hbo,S11_D13 hbo,S12_D10 hbo,S12_D12 hbo,S12_D14 hbo,S13_D6 hbo,S13_D11 hbo,S13_D13 hbo,S13_D15 hbo,S14_D12 hbo,S14_D13 hbo,S14_D14 hbo,S14_D16 hbo,S15_D13 hbo,S15_D15 hbo,S15_D16 hbo,S16_D14 hbo,S16_D16 hbo
S1_D1 hbo,0.0,0.0,0.0,0.0,0.0,0.0,0.0,0.0,0.0,0.0,0.0,0.0,0.0,0.0,0.0,0.0,0.0,0.0,0.0,0.0,0.0,0.0,0.0,0.0,0.0,0.0,0.0,0.0,0.0,0.0,0.0,0.0,0.0,0.0,0.0,0.0,0.0,0.0,0.0,0.0,0.0,0.0,0.0,0.0,0.0,0.0,0.0,0.0,0.0,0.0,0.0,0.0
S1_D3 hbo,0.0,0.07083333333333333,0.0,0.0,0.0,0.0,0.0,0.0,0.0,0.0,0.0,0.0,0.05,0.06666666666666667,0.0,0.025,0.05416666666666667,0.058333333333333334,0.0,0.05416666666666667,0.0,0.0,0.0,0.0,0.0,0.05,0.04583333333333333,0.05416666666666667,0.025,0.0,0.0,0.0,0.04583333333333333,0.0,0.0,0.03333333333333333,0.0,0.0,0.0,0.0,0.0,0.0,0.05416666666666667,0.0,0.05416666666666667,0.029166666666666667,0.0,0.058333333333333334,0.0625,0.03333333333333333,0.075,0.0
S2_D1 hbo,0.0,0.0,0.0,0.0,0.0,0.0,0.0,0.0,0.0,0.0,0.0,0.0,0.0,0.0,0.0,0.0,0.0,0.0,0.0,0.0,0.0,0.0,0.0,0.0,0.0,0.0,0.0,0.0,0.0,0.0,0.0,0.0,0.0,0.0,0.0,0.0,0.0,0.0,0.0,0.0,0.0,0.0,0.0,0.0,0.0,0.0,0.0,0.0,0.0,0.0,0.0,0.0
S2_D2 hbo,0.0,0.0,0.0,0.0,0.0,0.0,0.0,0.0,0.0,0.0,0.0,0.0,0.0,0.0,0.0,0.0,0.0,0.0,0.0,0.0,0.0,0.0,0.0,0.0,0.0,0.0,0.0,0.0,0.0,0.0,0.0,0.0,0.0,0.0,0.0,0.0,0.0,0.0,0.0,0.0,0.0,0.0,0.0,0.0,0.0,0.0,0.0,0.0,0.0,0.0,0.0,0.0
S2_D4 hbo,0.0,0.0,0.0,0.0,0.0,0.0,0.0,0.0,0.0,0.0,0.0,0.0,0.0,0.0,0.0,0.0,0.0,0.0,0.0,0.0,0.0,0.0,0.0,0.0,0.0,0.0,0.0,0.0,0.0,0.0,0.0,0.0,0.0,0.0,0.0,0.0,0.0,0.0,0.0,0.0,0.0,0.0,0.0,0.0,0.0,0.0,0.0,0.0,0.0,0.0,0.0,0.0
S3_D1 hbo,0.0,0.0,0.0,0.0,0.0,0.0,0.0,0.0,0.0,0.0,0.0,0.0,0.0,0.0,0.0,0.0,0.0,0.0,0.0,0.0,0.0,0.0,0.0,0.0,0.0,0.0,0.0,0.0,0.0,0.0,0.0,0.0,0.0,0.0,0.0,0.0,0.0,0.0,0.0,0.0,0.0,0.0,0.0,0.0,0.0,0.0,0.0,0.0,0.0,0.0,0.0,0.0
S3_D3 hbo,0.0,0.0,0.0,0.0,0.0,0.0,0.0,0.0,0.0,0.0,0.0,0.0,0.0,0.0,0.0,0.0,0.0,0.0,0.0,0.0,0.0,0.0,0.0,0.0,0.0,0.0,0.0,0.0,0.0,0.0,0.0,0.0,0.0,0.0,0.0,0.0,0.0,0.0,0.0,0.0,0.0,0.0,0.0,0.0,0.0,0.0,0.0,0.0,0.0,0.0,0.0,0.0
S3_D4 hbo,0.0,0.0,0.0,0.0,0.0,0.0,0.0,0.0,0.0,0.0,0.0,0.0,0.0,0.0,0.0,0.0,0.0,0.0,0.0,0.0,0.0,0.0,0.0,0.0,0.0,0.0,0.0,0.0,0.0,0.0,0.0,0.0,0.0,0.0,0.0,0.0,0.0,0.0,0.0,0.0,0.0,0.0,0.0,0.0,0.0,0.0,0.0,0.0,0.0,0.0,0.0,0.0
S3_D5 hbo,0.0,0.0,0.0,0.0,0.0,0.0,0.0,0.0,0.0,0.0,0.0,0.0,0.0,0.0,0.0,0.0,0.0,0.0,0.0,0.0,0.0,0.0,0.0,0.0,0.0,0.0,0.0,0.0,0.0,0.0,0.0,0.0,0.0,0.0,0.0,0.0,0.0,0.0,0.0,0.0,0.0,0.0,0.0,0.0,0.0,0.0,0.0,0.0,0.0,0.0,0.0,0.0
S4_D2 hbo,0.0,0.0,0.0,0.0,0.0,0.0,0.0,0.0,0.0,0.0,0.0,0.0,0.0,0.0,0.0,0.0,0.0,0.0,0.0,0.0,0.0,0.0,0.0,0.0,0.0,0.0,0.0,0.0,0.0,0.0,0.0,0.0,0.0,0.0,0.0,0.0,0.0,0.0,0.0,0.0,0.0,0.0,0.0,0.0,0.0,0.0,0.0,0.0,0.0,0.0,0.0,0.0
S4_D4 hbo,0.0,0.0,0.0,0.0,0.0,0.0,0.0,0.0,0.0,0.0,0.0,0.0,0.0,0.0,0.0,0.0,0.0,0.0,0.0,0.0,0.0,0.0,0.0,0.0,0.0,0.0,0.0,0.0,0.0,0.0,0.0,0.0,0.0,0.0,0.0,0.0,0.0,0.0,0.0,0.0,0.0,0.0,0.0,0.0,0.0,0.0,0.0,0.0,0.0,0.0,0.0,0.0
S4_D6 hbo,0.0,0.0,0.0,0.0,0.0,0.0,0.0,0.0,0.0,0.0,0.0,0.0,0.0,0.0,0.0,0.0,0.0,0.0,0.0,0.0,0.0,0.0,0.0,0.0,0.0,0.0,0.0,0.0,0.0,0.0,0.0,0.0,0.0,0.0,0.0,0.0,0.0,0.0,0.0,0.0,0.0,0.0,0.0,0.0,0.0,0.0,0.0,0.0,0.0,0.0,0.0,0.0
S4_D11 hbo,0.0,0.05761316872427984,0.0,0.0,0.0,0.0,0.0,0.0,0.0,0.0,0.0,0.0,0.05761316872427984,0.06172839506172839,0.0,0.024691358024691357,0.04938271604938271,0.06172839506172839,0.0,0.06172839506172839,0.0,0.0,0.0,0.0,0.0,0.05761316872427984,0.04938271604938271,0.053497942386831275,0.024691358024691357,0.0,0.0,0.0,0.04938271604938271,0.0,0.0,0.03292181069958848,0.0,0.0,0.0,0.0,0.0,0.0,0.06172839506172839,0.0,0.04938271604938271,0.02880658436213992,0.0,0.06172839506172839,0.06172839506172839,0.03292181069958848,0.06172839506172839,0.0
S5_D3 hbo,0.0,0.07171314741035857,0.0,0.0,0.0,0.0,0.0,0.0,0.0,0.0,0.0,0.0,0.05179282868525897,0.06772908366533864,0.0,0.02390438247011952,0.05179282868525897,0.05976095617529881,0.0,0.055776892430278883,0.0,0.0,0.0,0.0,0.0,0.05179282868525897,0.04780876494023904,0.05179282868525897,0.02390438247011952,0.0,0.0,0.0,0.04780876494023904,0.0,0.0,0.03187250996015936,0.0,0.0,0.0,0.0,0.0,0.0,0.055776892430278883,0.0,0.05179282868525897,0.027888446215139442,0.0,0.05976095617529881,0.06374501992031872,0.03187250996015936,0.07171314741035857,0.0
S5_D5 hbo,0.0,0.0,0.0,0.0,0.0,0.0,0.0,0.0,0.0,0.0,0.0,0.0,0.0,0.0,0.0,0.0,0.0,0.0,0.0,0.0,0.0,0.0,0.0,0.0,0.0,0.0,0.0,0.0,0.0,0.0,0.0,0.0,0.0,0.0,0.0,0.0,0.0,0.0,0.0,0.0,0.0,0.0,0.0,0.0,0.0,0.0,0.0,0.0,0.0,0.0,0.0,0.0
S5_D7 hbo,0.0,0.05555555555555555,0.0,0.0,0.0,0.0,0.0,0.0,0.0,0.0,0.0,0.0,0.05555555555555555,0.05555555555555555,0.0,0.046296296296296294,0.05555555555555555,0.05555555555555555,0.0,0.05555555555555555,0.0,0.0,0.0,0.0,0.0,0.05555555555555555,0.046296296296296294,0.05555555555555555,0.009259259259259259,0.0,0.0,0.0,0.046296296296296294,0.0,0.0,0.046296296296296294,0.0,0.0,0.0,0.0,0.0,0.0,0.05555555555555555,0.0,0.05555555555555555,0.05555555555555555,0.0,0.05555555555555555,0.05555555555555555,0.027777777777777776,0.05555555555555555,0.0
S6_D4 hbo,0.0,0.06372549019607843,0.0,0.0,0.0,0.0,0.0,0.0,0.0,0.0,0.0,0.0,0.049019607843137254,0.06372549019607843,0.0,0.029411764705882353,0.058823529411764705,0.058823529411764705,0.0,0.05392156862745098,0.0,0.0,0.0,0.0,0.0,0.049019607843137254,0.04411764705882353,0.05392156862745098,0.024509803921568627,0.0,0.0,0.0,0.04411764705882353,0.0,0.0,0.0392156862745098,0.0,0.0,0.0,0.0,0.0,0.0,0.05392156862745098,0.0,0.058823529411764705,0.03431372549019608,0.0,0.058823529411764705,0.06372549019607843,0.03431372549019608,0.06372549019607843,0.0
S6_D5 hbo,0.0,0.060836501901140684,0.0,0.0,0.0,0.0,0.0,0.0,0.0,0.0,0.0,0.0,0.057034220532319393,0.06463878326996197,0.0,0.022813688212927757,0.049429657794676805,0.06463878326996197,0.0,0.060836501901140684,0.0,0.0,0.0,0.0,0.0,0.057034220532319393,0.045627376425855515,0.049429657794676805,0.022813688212927757,0.0,0.0,0.0,0.045627376425855515,0.0,0.0,0.030418250950570342,0.0,0.0,0.0,0.0,0.0,0.0,0.060836501901140684,0.0,0.049429657794676805,0.026615969581749048,0.0,0.06463878326996197,0.06844106463878327,0.030418250950570342,0.06844106463878327,0.0
S6_D6 hbo,0.0,0.0,0.0,0.0,0.0,0.0,0.0,0.0,0.0,0.0,0.0,0.0,0.0,0.0,0.0,0.0,0.0,0.0,0.0,0.0,0.0,0.0,0.0,0.0,0.0,0.0,0.0,0.0,0.0,0.0,0.0,0.0,0.0,0.0,0.0,0.0,0.0,0.0,0.0,0.0,0.0,0.0,0.0,0.0,0.0,0.0,0.0,0.0,0.0,0.0,0.0,0.0
S6_D8 hbo,0.0,0.05791505791505792,0.0,0.0,0.0,0.0,0.0,0.0,0.0,0.0,0.0,0.0,0.05791505791505792,0.06177606177606178,0.0,0.023166023166023165,0.05019305019305019,0.06563706563706563,0.0,0.06177606177606178,0.0,0.0,0.0,0.0,0.0,0.05791505791505792,0.04633204633204633,0.05019305019305019,0.023166023166023165,0.0,0.0,0.0,0.04633204633204633,0.0,0.0,0.03088803088803089,0.0,0.0,0.0,0.0,0.0,0.0,0.06177606177606178,0.0,0.05019305019305019,0.02702702702702703,0.0,0.06563706563706563,0.06563706563706563,0.03088803088803089,0.06563706563706563,0.0
S7_D5 hbo,0.0,0.0,0.0,0.0,0.0,0.0,0.0,0.0,0.0,0.0,0.0,0.0,0.0,0.0,0.0,0.0,0.0,0.0,0.0,0.0,0.0,0.0,0.0,0.0,0.0,0.0,0.0,0.0,0.0,0.0,0.0,0.0,0.0,0.0,0.0,0.0,0.0,0.0,0.0,0.0,0.0,0.0,0.0,0.0,0.0,0.0,0.0,0.0,0.0,0.0,0.0,0.0
S7_D7 hbo,0.0,0.0,0.0,0.0,0.0,0.0,0.0,0.0,0.0,0.0,0.0,0.0,0.0,0.0,0.0,0.0,0.0,0.0,0.0,0.0,0.0,0.0,0.0,0.0,0.0,0.0,0.0,0.0,0.0,0.0,0.0,0.0,0.0,0.0,0.0,0.0,0.0,0.0,0.0,0.0,0.0,0.0,0.0,0.0,0.0,0.0,0.0,0.0,0.0,0.0,0.0,0.0
S7_D8 hbo,0.0,0.0,0.0,0.0,0.0,0.0,0.0,0.0,0.0,0.0,0.0,0.0,0.0,0.0,0.0,0.0,0.0,0.0,0.0,0.0,0.0,0.0,0.0,0.0,0.0,0.0,0.0,0.0,0.0,0.0,0.0,0.0,0.0,0.0,0.0,0.0,0.0,0.0,0.0,0.0,0.0,0.0,0.0,0.0,0.0,0.0,0.0,0.0,0.0,0.0,0.0,0.0
S8_D6 hbo,0.0,0.0,0.0,0.0,0.0,0.0,0.0,0.0,0.0,0.0,0.0,0.0,0.0,0.0,0.0,0.0,0.0,0.0,0.0,0.0,0.0,0.0,0.0,0.0,0.0,0.0,0.0,0.0,0.0,0.0,0.0,0.0,0.0,0.0,0.0,0.0,0.0,0.0,0.0,0.0,0.0,0.0,0.0,0.0,0.0,0.0,0.0,0.0,0.0,0.0,0.0,0.0
S8_D8 hbo,0.0,0.0,0.0,0.0,0.0,0.0,0.0,0.0,0.0,0.0,0.0,0.0,0.0,0.0,0.0,0.0,0.0,0.0,0.0,0.0,0.0,0.0,0.0,0.0,0.0,0.0,0.0,0.0,0.0,0.0,0.0,0.0,0.0,0.0,0.0,0.0,0.0,0.0,0.0,0.0,0.0,0.0,0.0,0.0,0.0,0.0,0.0,0.0,0.0,0.0,0.0,0.0
S8_D15 hbo,0.0,0.05384615384615385,0.0,0.0,0.0,0.0,0.0,0.0,0.0,0.0,0.0,0.0,0.057692307692307696,0.057692307692307696,0.0,0.023076923076923078,0.046153846153846156,0.06538461538461539,0.0,0.06538461538461539,0.0,0.0,0.0,0.0,0.0,0.06923076923076923,0.046153846153846156,0.05,0.023076923076923078,0.0,0.0,0.0,0.046153846153846156,0.0,0.0,0.03076923076923077,0.0,0.0,0.0,0.0,0.0,0.0,0.06538461538461539,0.0,0.046153846153846156,0.026923076923076925,0.0,0.06153846153846154,0.06923076923076923,0.03076923076923077,0.06538461538461539,0.0
S9_D2 hbo,0.0,0.05687203791469194,0.0,0.0,0.0,0.0,0.0,0.0,0.0,0.0,0.0,0.0,0.05687203791469194,0.05687203791469194,0.0,0.02843601895734597,0.052132701421800945,0.05687203791469194,0.0,0.05687203791469194,0.0,0.0,0.0,0.0,0.0,0.05687203791469194,0.052132701421800945,0.05687203791469194,0.02843601895734597,0.0,0.0,0.0,0.052132701421800945,0.0,0.0,0.037914691943127965,0.0,0.0,0.0,0.0,0.0,0.0,0.05687203791469194,0.0,0.052132701421800945,0.03317535545023697,0.0,0.05687203791469194,0.05687203791469194,0.037914691943127965,0.05687203791469194,0.0
S9_D9 hbo,0.0,0.059907834101382486,0.0,0.0,0.0,0.0,0.0,0.0,0.0,0.0,0.0,0.0,0.05069124423963134,0.059907834101382486,0.0,0.027649769585253458,0.059907834101382486,0.059907834101382486,0.0,0.055299539170506916,0.0,0.0,0.0,0.0,0.0,0.05069124423963134,0.04608294930875576,0.055299539170506916,0.027649769585253458,0.0,0.0,0.0,0.04608294930875576,0.0,0.0,0.03686635944700461,0.0,0.0,0.0,0.0,0.0,0.0,0.055299539170506916,0.0,0.059907834101382486,0.03225806451612903,0.0,0.059907834101382486,0.059907834101382486,0.03686635944700461,0.059907834101382486,0.0
S9_D11 hbo,0.0,0.05357142857142857,0.0,0.0,0.0,0.0,0.0,0.0,0.0,0.0,0.0,0.0,0.05357142857142857,0.05357142857142857,0.0,0.026785714285714284,0.05357142857142857,0.05357142857142857,0.0,0.05357142857142857,0.0,0.0,0.0,0.0,0.0,0.05357142857142857,0.05357142857142857,0.05357142857142857,0.044642857142857144,0.0,0.0,0.0,0.05357142857142857,0.0,0.0,0.044642857142857144,0.0,0.0,0.0,0.0,0.0,0.0,0.05357142857142857,0.0,0.05357142857142857,0.026785714285714284,0.0,0.05357142857142857,0.05357142857142857,0.05357142857142857,0.05357142857142857,0.0
S10_D9 hbo,0.0,0.0,0.0,0.0,0.0,0.0,0.0,0.0,0.0,0.0,0.0,0.0,0.0,0.0,0.0,0.0,0.0,0.0,0.0,0.0,0.0,0.0,0.0,0.0,0.0,0.0,0.0,0.0,0.0,0.0,0.0,0.0,0.0,0.0,0.0,0.0,0.0,0.0,0.0,0.0,0.0,0.0,0.0,0.0,0.0,0.0,0.0,0.0,0.0,0.0,0.0,0.0
S10_D10 hbo,0.0,0.0,0.0,0.0,0.0,0.0,0.0,0.0,0.0,0.0,0.0,0.0,0.0,0.0,0.0,0.0,0.0,0.0,0.0,0.0,0.0,0.0,0.0,0.0,0.0,0.0,0.0,0.0,0.0,0.0,0.0,0.0,0.0,0.0,0.0,0.0,0.0,0.0,0.0,0.0,0.0,0.0,0.0,0.0,0.0,0.0,0.0,0.0,0.0,0.0,0.0,0.0
S10_D12 hbo,0.0,0.0,0.0,0.0,0.0,0.0,0.0,0.0,0.0,0.0,0.0,0.0,0.0,0.0,0.0,0.0,0.0,0.0,0.0,0.0,0.0,0.0,0.0,0.0,0.0,0.0,0.0,0.0,0.0,0.0,0.0,0.0,0.0,0.0,0.0,0.0,0.0,0.0,0.0,0.0,0.0,0.0,0.0,0.0,0.0,0.0,0.0,0.0,0.0,0.0,0.0,0.0
S11_D9 hbo,0.0,0.05687203791469194,0.0,0.0,0.0,0.0,0.0,0.0,0.0,0.0,0.0,0.0,0.05687203791469194,0.05687203791469194,0.0,0.02843601895734597,0.052132701421800945,0.05687203791469194,0.0,0.05687203791469194,0.0,0.0,0.0,0.0,0.0,0.05687203791469194,0.052132701421800945,0.05687203791469194,0.02843601895734597,0.0,0.0,0.0,0.052132701421800945,0.0,0.0,0.037914691943127965,0.0,0.0,0.0,0.0,0.0,0.0,0.05687203791469194,0.0,0.052132701421800945,0.03317535545023697,0.0,0.05687203791469194,0.05687203791469194,0.037914691943127965,0.05687203791469194,0.0
S11_D11 hbo,0.0,0.0,0.0,0.0,0.0,0.0,0.0,0.0,0.0,0.0,0.0,0.0,0.0,0.0,0.0,0.0,0.0,0.0,0.0,0.0,0.0,0.0,0.0,0.0,0.0,0.0,0.0,0.0,0.0,0.0,0.0,0.0,0.0,0.0,0.0,0.0,0.0,0.0,0.0,0.0,0.0,0.0,0.0,0.0,0.0,0.0,0.0,0.0,0.0,0.0,0.0,0.0
S11_D12 hbo,0.0,0.0,0.0,0.0,0.0,0.0,0.0,0.0,0.0,0.0,0.0,0.0,0.0,0.0,0.0,0.0,0.0,0.0,0.0,0.0,0.0,0.0,0.0,0.0,0.0,0.0,0.0,0.0,0.0,0.0,0.0,0.0,0.0,0.0,0.0,0.0,0.0,0.0,0.0,0.0,0.0,0.0,0.0,0.0,0.0,0.0,0.0,0.0,0.0,0.0,0.0,0.0
S11_D13 hbo,0.0,0.0547945205479452,0.0,0.0,0.0,0.0,0.0,0.0,0.0,0.0,0.0,0.0,0.0547945205479452,0.0547945205479452,0.0,0.0410958904109589,0.0547945205479452,0.0547945205479452,0.0,0.0547945205479452,0.0,0.0,0.0,0.0,0.0,0.0547945205479452,0.04794520547945205,0.0547945205479452,0.02054794520547945,0.0,0.0,0.0,0.04794520547945205,0.0,0.0,0.04794520547945205,0.0,0.0,0.0,0.0,0.0,0.0,0.0547945205479452,0.0,0.0547945205479452,0.04794520547945205,0.0,0.0547945205479452,0.0547945205479452,0.03424657534246575,0.0547945205479452,0.0
S12_D10 hbo,0.0,0.0,0.0,0.0,0.0,0.0,0.0,0.0,0.0,0.0,0.0,0.0,0.0,0.0,0.0,0.0,0.0,0.0,0.0,0.0,0.0,0.0,0.0,0.0,0.0,0.0,0.0,0.0,0.0,0.0,0.0,0.0,0.0,0.0,0.0,0.0,0.0,0.0,0.0,0.0,0.0,0.0,0.0,0.0,0.0,0.0,0.0,0.0,0.0,0.0,0.0,0.0
S12_D12 hbo,0.0,0.0,0.0,0.0,0.0,0.0,0.0,0.0,0.0,0.0,0.0,0.0,0.0,0.0,0.0,0.0,0.0,0.0,0.0,0.0,0.0,0.0,0.0,0.0,0.0,0.0,0.0,0.0,0.0,0.0,0.0,0.0,0.0,0.0,0.0,0.0,0.0,0.0,0.0,0.0,0.0,0.0,0.0,0.0,0.0,0.0,0.0,0.0,0.0,0.0,0.0,0.0
S12_D14 hbo,0.0,0.0,0.0,0.0,0.0,0.0,0.0,0.0,0.0,0.0,0.0,0.0,0.0,0.0,0.0,0.0,0.0,0.0,0.0,0.0,0.0,0.0,0.0,0.0,0.0,0.0,0.0,0.0,0.0,0.0,0.0,0.0,0.0,0.0,0.0,0.0,0.0,0.0,0.0,0.0,0.0,0.0,0.0,0.0,0.0,0.0,0.0,0.0,0.0,0.0,0.0,0.0
S13_D6 hbo,0.0,0.0,0.0,0.0,0.0,0.0,0.0,0.0,0.0,0.0,0.0,0.0,0.0,0.0,0.0,0.0,0.0,0.0,0.0,0.0,0.0,0.0,0.0,0.0,0.0,0.0,0.0,0.0,0.0,0.0,0.0,0.0,0.0,0.0,0.0,0.0,0.0,0.0,0.0,0.0,0.0,0.0,0.0,0.0,0.0,0.0,0.0,0.0,0.0,0.0,0.0,0.0
S13_D11 hbo,0.0,0.0,0.0,0.0,0.0,0.0,0.0,0.0,0.0,0.0,0.0,0.0,0.0,0.0,0.0,0.0,0.0,0.0,0.0,0.0,0.0,0.0,0.0,0.0,0.0,0.0,0.0,0.0,0.0,0.0,0.0,0.0,0.0,0.0,0.0,0.0,0.0,0.0,0.0,0.0,0.0,0.0,0.0,0.0,0.0,0.0,0.0,0.0,0.0,0.0,0.0,0.0
S13_D13 hbo,0.0,0.0,0.0,0.0,0.0,0.0,0.0,0.0,0.0,0.0,0.0,0.0,0.0,0.0,0.0,0.0,0.0,0.0,0.0,0.0,0.0,0.0,0.0,0.0,0.0,0.0,0.0,0.0,0.0,0.0,0.0,0.0,0.0,0.0,0.0,0.0,0.0,0.0,0.0,0.0,0.0,0.0,0.0,0.0,0.0,0.0,0.0,0.0,0.0,0.0,0.0,0.0
S13_D15 hbo,0.0,0.05791505791505792,0.0,0.0,0.0,0.0,0.0,0.0,0.0,0.0,0.0,0.0,0.05791505791505792,0.06177606177606178,0.0,0.023166023166023165,0.05019305019305019,0.06563706563706563,0.0,0.06177606177606178,0.0,0.0,0.0,0.0,0.0,0.05791505791505792,0.04633204633204633,0.05019305019305019,0.023166023166023165,0.0,0.0,0.0,0.04633204633204633,0.0,0.0,0.03088803088803089,0.0,0.0,0.0,0.0,0.0,0.0,0.06177606177606178,0.0,0.05019305019305019,0.02702702702702703,0.0,0.06563706563706563,0.06563706563706563,0.03088803088803089,0.06563706563706563,0.0
S14_D12 hbo,0.0,0.0,0.0,0.0,0.0,0.0,0.0,0.0,0.0,0.0,0.0,0.0,0.0,0.0,0.0,0.0,0.0,0.0,0.0,0.0,0.0,0.0,0.0,0.0,0.0,0.0,0.0,0.0,0.0,0.0,0.0,0.0,0.0,0.0,0.0,0.0,0.0,0.0,0.0,0.0,0.0,0.0,0.0,0.0,0.0,0.0,0.0,0.0,0.0,0.0,0.0,0.0
S14_D13 hbo,0.0,0.06372549019607843,0.0,0.0,0.0,0.0,0.0,0.0,0.0,0.0,0.0,0.0,0.049019607843137254,0.06372549019607843,0.0,0.029411764705882353,0.058823529411764705,0.058823529411764705,0.0,0.05392156862745098,0.0,0.0,0.0,0.0,0.0,0.049019607843137254,0.04411764705882353,0.05392156862745098,0.024509803921568627,0.0,0.0,0.0,0.04411764705882353,0.0,0.0,0.0392156862745098,0.0,0.0,0.0,0.0,0.0,0.0,0.05392156862745098,0.0,0.058823529411764705,0.03431372549019608,0.0,0.058823529411764705,0.06372549019607843,0.03431372549019608,0.06372549019607843,0.0
S14_D14 hbo,0.0,0.058823529411764705,0.0,0.0,0.0,0.0,0.0,0.0,0.0,0.0,0.0,0.0,0.05042016806722689,0.058823529411764705,0.0,0.04201680672268908,0.058823529411764705,0.058823529411764705,0.0,0.058823529411764705,0.0,0.0,0.0,0.0,0.0,0.05042016806722689,0.04201680672268908,0.058823529411764705,0.008403361344537815,0.0,0.0,0.0,0.04201680672268908,0.0,0.0,0.04201680672268908,0.0,0.0,0.0,0.0,0.0,0.0,0.058823529411764705,0.0,0.058823529411764705,0.05042016806722689,0.0,0.058823529411764705,0.058823529411764705,0.025210084033613446,0.058823529411764705,0.0
S14_D16 hbo,0.0,0.0,0.0,0.0,0.0,0.0,0.0,0.0,0.0,0.0,0.0,0.0,0.0,0.0,0.0,0.0,0.0,0.0,0.0,0.0,0.0,0.0,0.0,0.0,0.0,0.0,0.0,0.0,0.0,0.0,0.0,0.0,0.0,0.0,0.0,0.0,0.0,0.0,0.0,0.0,0.0,0.0,0.0,0.0,0.0,0.0,0.0,0.0,0.0,0.0,0.0,0.0
S15_D13 hbo,0.0,0.06274509803921569,0.0,0.0,0.0,0.0,0.0,0.0,0.0,0.0,0.0,0.0,0.054901960784313725,0.06666666666666667,0.0,0.023529411764705882,0.050980392156862744,0.06274509803921569,0.0,0.058823529411764705,0.0,0.0,0.0,0.0,0.0,0.054901960784313725,0.047058823529411764,0.050980392156862744,0.023529411764705882,0.0,0.0,0.0,0.047058823529411764,0.0,0.0,0.03137254901960784,0.0,0.0,0.0,0.0,0.0,0.0,0.058823529411764705,0.0,0.050980392156862744,0.027450980392156862,0.0,0.06274509803921569,0.06666666666666667,0.03137254901960784,0.06666666666666667,0.0
S15_D15 hbo,0.0,0.0625,0.0,0.0,0.0,0.0,0.0,0.0,0.0,0.0,0.0,0.0,0.05514705882352941,0.0661764705882353,0.0,0.022058823529411766,0.04779411764705882,0.0661764705882353,0.0,0.0625,0.0,0.0,0.0,0.0,0.0,0.058823529411764705,0.04411764705882353,0.04779411764705882,0.022058823529411766,0.0,0.0,0.0,0.04411764705882353,0.0,0.0,0.029411764705882353,0.0,0.0,0.0,0.0,0.0,0.0,0.0625,0.0,0.04779411764705882,0.025735294117647058,0.0,0.0625,0.06985294117647059,0.029411764705882353,0.07352941176470588,0.0
S15_D16 hbo,0.0,0.053691275167785234,0.0,0.0,0.0,0.0,0.0,0.0,0.0,0.0,0.0,0.0,0.053691275167785234,0.053691275167785234,0.0,0.03355704697986577,0.053691275167785234,0.053691275167785234,0.0,0.053691275167785234,0.0,0.0,0.0,0.0,0.0,0.053691275167785234,0.053691275167785234,0.053691275167785234,0.03355704697986577,0.0,0.0,0.0,0.053691275167785234,0.0,0.0,0.04697986577181208,0.0,0.0,0.0,0.0,0.0,0.0,0.053691275167785234,0.0,0.053691275167785234,0.03355704697986577,0.0,0.053691275167785234,0.053691275167785234,0.04697986577181208,0.053691275167785234,0.0
S16_D14 hbo,0.0,0.06691449814126393,0.0,0.0,0.0,0.0,0.0,0.0,0.0,0.0,0.0,0.0,0.055762081784386616,0.06691449814126393,0.0,0.022304832713754646,0.048327137546468404,0.06319702602230483,0.0,0.05947955390334572,0.0,0.0,0.0,0.0,0.0,0.055762081784386616,0.04460966542750929,0.048327137546468404,0.022304832713754646,0.0,0.0,0.0,0.04460966542750929,0.0,0.0,0.02973977695167286,0.0,0.0,0.0,0.0,0.0,0.0,0.05947955390334572,0.0,0.048327137546468404,0.026022304832713755,0.0,0.06319702602230483,0.06691449814126393,0.02973977695167286,0.07806691449814127,0.0
S16_D16 hbo,0.0,0.0,0.0,0.0,0.0,0.0,0.0,0.0,0.0,0.0,0.0,0.0,0.0,0.0,0.0,0.0,0.0,0.0,0.0,0.0,0.0,0.0,0.0,0.0,0.0,0.0,0.0,0.0,0.0,0.0,0.0,0.0,0.0,0.0,0.0,0.0,0.0,0.0,0.0,0.0,0.0,0.0,0.0,0.0,0.0,0.0,0.0,0.0,0.0,0.0,0.0,0.0
