,S1_D1 hbo,S1_D3 hbo,S2_D1 hbo,S2_D2 hbo,S2_D4 hbo,S3_D1 hbo,S3_D3 hbo,S3_D4 hbo,S3_D5 hbo,S4_D2 hbo,S4_D4 hbo,S4_D6 hbo,S4_D11 hbo,S5_D3 hbo,S5_D5 hbo,S5_D7 hbo,S6_D4 hbo,S6_D5 hbo,S6_D6 hbo,S6_D8 hbo,S7_D5 hbo,S7_D7 hbo,S7_D8 hbo,S8_D6 hbo,S8_D8 hbo,S8_D15 hbo,S9_D2 hbo,S9_D9 hbo,S9_D11 hbo,S10_D9 hbo,S10_D10 hbo,S10_D12 hbo,S11_D9 hbo,S11_D11 hbo,S11_D12 hbo,S11_D13 hbo,S12_D10 hbo,S12_D12 hbo,S12_D14 hbo,S13_D6 hbo,S13_D11 hbo,S13_D13 hbo,S13_D15 hbo,S14_D12 hbo,S14_D13 hbo,S14_D14 hbo,S14_D16 hbo,S15_D13 hbo,S15_D15 hbo,S15_D16 hbo,S16_D14 hbo,S16_D16 hbo
S1_D1 hbo,0.0189208128941836,0.0189208128941836,0.019621583742116328,0.019621583742116328,0.019621583742116328,0.019621583742116328,0.019621583742116328,0.019621583742116328,0.0189208128941836,0.0189208128941836,0.016818500350385426,0.0189208128941836,0.019621583742116328,0.019621583742116328,0.019621583742116328,0.016818500350385426,0.018220042046250877,0.018220042046250877,0.0189208128941836,0.018220042046250877,0.019621583742116328,0.019621583742116328,0.019621583742116328,0.0189208128941836,0.0189208128941836,0.0189208128941836,0.019621583742116328,0.019621583742116328,0.019621583742116328,0.019621583742116328,0.019621583742116328,0.019621583742116328,0.019621583742116328,0.019621583742116328,0.019621583742116328,0.019621583742116328,0.019621583742116328,0.019621583742116328,0.019621583742116328,0.0189208128941836,0.019621583742116328,0.0189208128941836,0.018220042046250877,0.019621583742116328,0.019621583742116328,0.019621583742116328,0.0189208128941836,0.019621583742116328,0.019621583742116328,0.0189208128941836,0.019621583742116328,0.019621583742116328
S1_D3 hbo,0.0189208128941836,0.0189208128941836,0.019621583742116328,0.019621583742116328,0.019621583742116328,0.019621583742116328,0.019621583742116328,0.019621583742116328,0.0189208128941836,0.0189208128941836,0.016818500350385426,0.0189208128941836,0.019621583742116328,0.019621583742116328,0.019621583742116328,0.016818500350385426,0.018220042046250877,0.018220042046250877,0.0189208128941836,0.018220042046250877,0.019621583742116328,0.019621583742116328,0.019621583742116328,0.0189208128941836,0.0189208128941836,0.0189208128941836,0.019621583742116328,0.019621583742116328,0.019621583742116328,0.019621583742116328,0.019621583742116328,0.019621583742116328,0.019621583742116328,0.019621583742116328,0.019621583742116328,0.019621583742116328,0.019621583742116328,0.019621583742116328,0.019621583742116328,0.0189208128941836,0.019621583742116328,0.0189208128941836,0.018220042046250877,0.019621583742116328,0.019621583742116328,0.019621583742116328,0.0189208128941836,0.019621583742116328,0.019621583742116328,0.0189208128941836,0.019621583742116328,0.019621583742116328
S2_D1 hbo,0.018654230512991338,0.018654230512991338,0.019986675549633577,0.020652898067954697,0.019320453031312457,0.019320453031312457,0.019320453031312457,0.019320453031312457,0.018654230512991338,0.018654230512991338,0.016655562958027982,0.018654230512991338,0.019986675549633577,0.019320453031312457,0.019986675549633577,0.015989340439706862,0.01798800799467022,0.01798800799467022,0.018654230512991338,0.017321785476349102,0.019986675549633577,0.020652898067954697,0.019320453031312457,0.018654230512991338,0.018654230512991338,0.018654230512991338,0.019320453031312457,0.019986675549633577,0.019320453031312457,0.020652898067954697,0.020652898067954697,0.020652898067954697,0.020652898067954697,0.020652898067954697,0.019320453031312457,0.019986675549633577,0.019986675549633577,0.019320453031312457,0.020652898067954697,0.018654230512991338,0.019320453031312457,0.018654230512991338,0.01798800799467022,0.019986675549633577,0.019320453031312457,0.019986675549633577,0.018654230512991338,0.018654230512991338,0.019320453031312457,0.018654230512991338,0.019986675549633577,0.018654230512991338
S2_D2 hbo,0.018518518518518517,0.018518518518518517,0.019890260631001373,0.0205761316872428,0.019204389574759947,0.019204389574759947,0.019204389574759947,0.019204389574759947,0.018518518518518517,0.018518518518518517,0.01646090534979424,0.018518518518518517,0.019890260631001373,0.019204389574759947,0.019890260631001373,0.01646090534979424,0.01783264746227709,0.01783264746227709,0.018518518518518517,0.01783264746227709,0.019890260631001373,0.0205761316872428,0.019204389574759947,0.018518518518518517,0.018518518518518517,0.018518518518518517,0.019204389574759947,0.019890260631001373,0.019204389574759947,0.021262002743484224,0.021262002743484224,0.0205761316872428,0.0205761316872428,0.0205761316872428,0.019204389574759947,0.019890260631001373,0.019890260631001373,0.019204389574759947,0.021262002743484224,0.018518518518518517,0.019204389574759947,0.018518518518518517,0.01783264746227709,0.019890260631001373,0.019204389574759947,0.019890260631001373,0.019204389574759947,0.019204389574759947,0.019204389574759947,0.019204389574759947,0.019890260631001373,0.019204389574759947
S2_D4 hbo,0.018754186202277295,0.018754186202277295,0.020093770931011386,0.020093770931011386,0.01942397856664434,0.01942397856664434,0.01942397856664434,0.01942397856664434,0.018754186202277295,0.018754186202277295,0.016744809109176157,0.018754186202277295,0.020093770931011386,0.01942397856664434,0.020093770931011386,0.016075016744809108,0.01808439383791025,0.01808439383791025,0.018754186202277295,0.017414601473543203,0.020093770931011386,0.020093770931011386,0.01942397856664434,0.018754186202277295,0.018754186202277295,0.018754186202277295,0.01942397856664434,0.020093770931011386,0.01942397856664434,0.020093770931011386,0.020093770931011386,0.020093770931011386,0.020093770931011386,0.020093770931011386,0.01942397856664434,0.020093770931011386,0.020093770931011386,0.01942397856664434,0.020093770931011386,0.018754186202277295,0.01942397856664434,0.018754186202277295,0.01808439383791025,0.020093770931011386,0.01942397856664434,0.020093770931011386,0.018754186202277295,0.018754186202277295,0.01942397856664434,0.018754186202277295,0.020093770931011386,0.018754186202277295
S3_D1 hbo,0.018754186202277295,0.018754186202277295,0.020093770931011386,0.020093770931011386,0.01942397856664434,0.01942397856664434,0.01942397856664434,0.01942397856664434,0.018754186202277295,0.018754186202277295,0.016744809109176157,0.018754186202277295,0.020093770931011386,0.01942397856664434,0.020093770931011386,0.016075016744809108,0.01808439383791025,0.01808439383791025,0.018754186202277295,0.017414601473543203,0.020093770931011386,0.020093770931011386,0.01942397856664434,0.018754186202277295,0.018754186202277295,0.018754186202277295,0.01942397856664434,0.020093770931011386,0.01942397856664434,0.020093770931011386,0.020093770931011386,0.020093770931011386,0.020093770931011386,0.020093770931011386,0.01942397856664434,0.020093770931011386,0.020093770931011386,0.01942397856664434,0.020093770931011386,0.018754186202277295,0.01942397856664434,0.018754186202277295,0.01808439383791025,0.020093770931011386,0.01942397856664434,0.020093770931011386,0.018754186202277295,0.018754186202277295,0.01942397856664434,0.018754186202277295,0.020093770931011386,0.018754186202277295
S3_D3 hbo,0.018754186202277295,0.018754186202277295,0.020093770931011386,0.020093770931011386,0.01942397856664434,0.01942397856664434,0.01942397856664434,0.01942397856664434,0.018754186202277295,0.018754186202277295,0.016744809109176157,0.018754186202277295,0.020093770931011386,0.01942397856664434,0.020093770931011386,0.016075016744809108,0.01808439383791025,0.01808439383791025,0.018754186202277295,0.017414601473543203,0.020093770931011386,0.020093770931011386,0.01942397856664434,0.018754186202277295,0.018754186202277295,0.018754186202277295,0.01942397856664434,0.020093770931011386,0.01942397856664434,0.020093770931011386,0.020093770931011386,0.020093770931011386,0.020093770931011386,0.020093770931011386,0.01942397856664434,0.020093770931011386,0.020093770931011386,0.01942397856664434,0.020093770931011386,0.018754186202277295,0.01942397856664434,0.018754186202277295,0.01808439383791025,0.020093770931011386,0.01942397856664434,0.020093770931011386,0.018754186202277295,0.018754186202277295,0.01942397856664434,0.018754186202277295,0.020093770931011386,0.018754186202277295
S3_D4 hbo,0.018754186202277295,0.018754186202277295,0.020093770931011386,0.020093770931011386,0.01942397856664434,0.01942397856664434,0.01942397856664434,0.01942397856664434,0.018754186202277295,0.018754186202277295,0.016744809109176157,0.018754186202277295,0.020093770931011386,0.01942397856664434,0.020093770931011386,0.016075016744809108,0.01808439383791025,0.01808439383791025,0.018754186202277295,0.017414601473543203,0.020093770931011386,0.020093770931011386,0.01942397856664434,0.018754186202277295,0.018754186202277295,0.018754186202277295,0.01942397856664434,0.020093770931011386,0.01942397856664434,0.020093770931011386,0.020093770931011386,0.020093770931011386,0.020093770931011386,0.020093770931011386,0.01942397856664434,0.020093770931011386,0.020093770931011386,0.01942397856664434,0.020093770931011386,0.018754186202277295,0.01942397856664434,0.018754186202277295,0.01808439383791025,0.020093770931011386,0.01942397856664434,0.020093770931011386,0.018754186202277295,0.018754186202277295,0.01942397856664434,0.018754186202277295,0.020093770931011386,0.018754186202277295
S3_D5 hbo,0.0189208128941836,0.0189208128941836,0.019621583742116328,0.019621583742116328,0.019621583742116328,0.019621583742116328,0.019621583742116328,0.019621583742116328,0.0189208128941836,0.0189208128941836,0.016818500350385426,0.0189208128941836,0.019621583742116328,0.019621583742116328,0.019621583742116328,0.016818500350385426,0.018220042046250877,0.018220042046250877,0.0189208128941836,0.018220042046250877,0.019621583742116328,0.019621583742116328,0.019621583742116328,0.0189208128941836,0.0189208128941836,0.0189208128941836,0.019621583742116328,0.019621583742116328,0.019621583742116328,0.019621583742116328,0.019621583742116328,0.019621583742116328,0.019621583742116328,0.019621583742116328,0.019621583742116328,0.019621583742116328,0.019621583742116328,0.019621583742116328,0.019621583742116328,0.0189208128941836,0.019621583742116328,0.0189208128941836,0.018220042046250877,0.019621583742116328,0.019621583742116328,0.019621583742116328,0.0189208128941836,0.019621583742116328,0.019621583742116328,0.0189208128941836,0.019621583742116328,0.019621583742116328
S4_D2 hbo,0.018654230512991338,0.018654230512991338,0.019986675549633577,0.019320453031312457,0.019986675549633577,0.019986675549633577,0.019986675549633577,0.019986675549633577,0.018654230512991338,0.019320453031312457,0.016655562958027982,0.019320453031312457,0.019986675549633577,0.019986675549633577,0.019986675549633577,0.015989340439706862,0.01798800799467022,0.01798800799467022,0.019320453031312457,0.017321785476349102,0.019986675549633577,0.019986675549633577,0.019986675549633577,0.018654230512991338,0.018654230512991338,0.018654230512991338,0.019986675549633577,0.019986675549633577,0.019986675549633577,0.019320453031312457,0.019986675549633577,0.019986675549633577,0.019986675549633577,0.019986675549633577,0.019320453031312457,0.019986675549633577,0.019986675549633577,0.019986675549633577,0.019986675549633577,0.019320453031312457,0.019986675549633577,0.018654230512991338,0.01798800799467022,0.019320453031312457,0.019320453031312457,0.019986675549633577,0.01798800799467022,0.018654230512991338,0.019320453031312457,0.01798800799467022,0.019320453031312457,0.018654230512991338
S4_D4 hbo,0.019319938176197836,0.019319938176197836,0.019319938176197836,0.019319938176197836,0.019319938176197836,0.019319938176197836,0.019319938176197836,0.019319938176197836,0.019319938176197836,0.019319938176197836,0.01854714064914992,0.019319938176197836,0.019319938176197836,0.019319938176197836,0.019319938176197836,0.017001545595054096,0.019319938176197836,0.019319938176197836,0.019319938176197836,0.019319938176197836,0.019319938176197836,0.019319938176197836,0.019319938176197836,0.019319938176197836,0.019319938176197836,0.019319938176197836,0.019319938176197836,0.019319938176197836,0.019319938176197836,0.019319938176197836,0.019319938176197836,0.019319938176197836,0.019319938176197836,0.019319938176197836,0.019319938176197836,0.019319938176197836,0.019319938176197836,0.019319938176197836,0.019319938176197836,0.019319938176197836,0.019319938176197836,0.019319938176197836,0.019319938176197836,0.019319938176197836,0.019319938176197836,0.019319938176197836,0.01854714064914992,0.019319938176197836,0.019319938176197836,0.01854714064914992,0.019319938176197836,0.019319938176197836
S4_D6 hbo,0.019008825526137134,0.019008825526137134,0.019687712152070606,0.019687712152070606,0.019687712152070606,0.019687712152070606,0.019687712152070606,0.019687712152070606,0.019008825526137134,0.019008825526137134,0.01697216564833673,0.019008825526137134,0.019687712152070606,0.019687712152070606,0.019687712152070606,0.016293279022403257,0.018329938900203666,0.018329938900203666,0.019008825526137134,0.017651052274270197,0.019687712152070606,0.019687712152070606,0.019687712152070606,0.019008825526137134,0.019008825526137134,0.019008825526137134,0.019687712152070606,0.019687712152070606,0.019687712152070606,0.019687712152070606,0.019687712152070606,0.019687712152070606,0.019687712152070606,0.019687712152070606,0.019687712152070606,0.019687712152070606,0.019687712152070606,0.019687712152070606,0.019687712152070606,0.019008825526137134,0.019687712152070606,0.019008825526137134,0.018329938900203666,0.019687712152070606,0.019687712152070606,0.019687712152070606,0.018329938900203666,0.019008825526137134,0.019687712152070606,0.018329938900203666,0.019687712152070606,0.019008825526137134
S4_D11 hbo,0.018654230512991338,0.018654230512991338,0.019986675549633577,0.020652898067954697,0.019320453031312457,0.019320453031312457,0.019320453031312457,0.019320453031312457,0.018654230512991338,0.018654230512991338,0.016655562958027982,0.018654230512991338,0.019986675549633577,0.019320453031312457,0.019986675549633577,0.015989340439706862,0.01798800799467022,0.01798800799467022,0.018654230512991338,0.017321785476349102,0.019986675549633577,0.020652898067954697,0.019320453031312457,0.018654230512991338,0.018654230512991338,0.018654230512991338,0.019320453031312457,0.019986675549633577,0.019320453031312457,0.020652898067954697,0.020652898067954697,0.020652898067954697,0.020652898067954697,0.020652898067954697,0.019320453031312457,0.019986675549633577,0.019986675549633577,0.019320453031312457,0.020652898067954697,0.018654230512991338,0.019320453031312457,0.018654230512991338,0.01798800799467022,0.019986675549633577,0.019320453031312457,0.019986675549633577,0.018654230512991338,0.018654230512991338,0.019320453031312457,0.018654230512991338,0.019986675549633577,0.018654230512991338
S5_D3 hbo,0.018754186202277295,0.018754186202277295,0.020093770931011386,0.020093770931011386,0.01942397856664434,0.01942397856664434,0.01942397856664434,0.01942397856664434,0.018754186202277295,0.018754186202277295,0.016744809109176157,0.018754186202277295,0.020093770931011386,0.01942397856664434,0.020093770931011386,0.016075016744809108,0.01808439383791025,0.01808439383791025,0.018754186202277295,0.017414601473543203,0.020093770931011386,0.020093770931011386,0.01942397856664434,0.018754186202277295,0.018754186202277295,0.018754186202277295,0.01942397856664434,0.020093770931011386,0.01942397856664434,0.020093770931011386,0.020093770931011386,0.020093770931011386,0.020093770931011386,0.020093770931011386,0.01942397856664434,0.020093770931011386,0.020093770931011386,0.01942397856664434,0.020093770931011386,0.018754186202277295,0.01942397856664434,0.018754186202277295,0.01808439383791025,0.020093770931011386,0.01942397856664434,0.020093770931011386,0.018754186202277295,0.018754186202277295,0.01942397856664434,0.018754186202277295,0.020093770931011386,0.018754186202277295
S5_D5 hbo,0.018654230512991338,0.018654230512991338,0.019986675549633577,0.020652898067954697,0.019320453031312457,0.019320453031312457,0.019320453031312457,0.019320453031312457,0.018654230512991338,0.018654230512991338,0.016655562958027982,0.018654230512991338,0.019986675549633577,0.019320453031312457,0.019986675549633577,0.015989340439706862,0.01798800799467022,0.01798800799467022,0.018654230512991338,0.017321785476349102,0.019986675549633577,0.020652898067954697,0.019320453031312457,0.018654230512991338,0.018654230512991338,0.018654230512991338,0.019320453031312457,0.019986675549633577,0.019320453031312457,0.020652898067954697,0.020652898067954697,0.020652898067954697,0.020652898067954697,0.020652898067954697,0.019320453031312457,0.019986675549633577,0.019986675549633577,0.019320453031312457,0.020652898067954697,0.018654230512991338,0.019320453031312457,0.018654230512991338,0.01798800799467022,0.019986675549633577,0.019320453031312457,0.019986675549633577,0.018654230512991338,0.018654230512991338,0.019320453031312457,0.018654230512991338,0.019986675549633577,0.018654230512991338
S5_D7 hbo,0.018790849673202614,0.018790849673202614,0.0196078431372549,0.0196078431372549,0.0196078431372549,0.0196078431372549,0.0196078431372549,0.0196078431372549,0.018790849673202614,0.018790849673202614,0.016339869281045753,0.018790849673202614,0.0196078431372549,0.0196078431372549,0.0196078431372549,0.018790849673202614,0.017973856209150325,0.017973856209150325,0.018790849673202614,0.017973856209150325,0.0196078431372549,0.0196078431372549,0.0196078431372549,0.018790849673202614,0.018790849673202614,0.018790849673202614,0.0196078431372549,0.0196078431372549,0.0196078431372549,0.0196078431372549,0.0196078431372549,0.0196078431372549,0.0196078431372549,0.0196078431372549,0.0196078431372549,0.0196078431372549,0.0196078431372549,0.0196078431372549,0.0196078431372549,0.018790849673202614,0.0196078431372549,0.018790849673202614,0.017973856209150325,0.0196078431372549,0.0196078431372549,0.0196078431372549,0.0196078431372549,0.0196078431372549,0.0196078431372549,0.0196078431372549,0.0196078431372549,0.0196078431372549
S6_D4 hbo,0.01939655172413793,0.01939655172413793,0.01939655172413793,0.01939655172413793,0.01939655172413793,0.01939655172413793,0.01939655172413793,0.01939655172413793,0.01939655172413793,0.01939655172413793,0.017241379310344827,0.01939655172413793,0.01939655172413793,0.01939655172413793,0.01939655172413793,0.017241379310344827,0.01867816091954023,0.01867816091954023,0.01939655172413793,0.01867816091954023,0.01939655172413793,0.01939655172413793,0.01939655172413793,0.01939655172413793,0.01939655172413793,0.01939655172413793,0.01939655172413793,0.01939655172413793,0.01939655172413793,0.01939655172413793,0.01939655172413793,0.01939655172413793,0.01939655172413793,0.01939655172413793,0.01939655172413793,0.01939655172413793,0.01939655172413793,0.01939655172413793,0.01939655172413793,0.01939655172413793,0.01939655172413793,0.01939655172413793,0.01867816091954023,0.01939655172413793,0.01939655172413793,0.01939655172413793,0.01867816091954023,0.01939655172413793,0.01939655172413793,0.01867816091954023,0.01939655172413793,0.01939655172413793
S6_D5 hbo,0.01939655172413793,0.01939655172413793,0.01939655172413793,0.01939655172413793,0.01939655172413793,0.01939655172413793,0.01939655172413793,0.01939655172413793,0.01939655172413793,0.01939655172413793,0.017241379310344827,0.01939655172413793,0.01939655172413793,0.01939655172413793,0.01939655172413793,0.017241379310344827,0.01867816091954023,0.01867816091954023,0.01939655172413793,0.01867816091954023,0.01939655172413793,0.01939655172413793,0.01939655172413793,0.01939655172413793,0.01939655172413793,0.01939655172413793,0.01939655172413793,0.01939655172413793,0.01939655172413793,0.01939655172413793,0.01939655172413793,0.01939655172413793,0.01939655172413793,0.01939655172413793,0.01939655172413793,0.01939655172413793,0.01939655172413793,0.01939655172413793,0.01939655172413793,0.01939655172413793,0.01939655172413793,0.01939655172413793,0.01867816091954023,0.01939655172413793,0.01939655172413793,0.01939655172413793,0.01867816091954023,0.01939655172413793,0.01939655172413793,0.01867816091954023,0.01939655172413793,0.01939655172413793
S6_D6 hbo,0.019008825526137134,0.019008825526137134,0.019687712152070606,0.019687712152070606,0.019687712152070606,0.019687712152070606,0.019687712152070606,0.019687712152070606,0.019008825526137134,0.019008825526137134,0.01697216564833673,0.019008825526137134,0.019687712152070606,0.019687712152070606,0.019687712152070606,0.016293279022403257,0.018329938900203666,0.018329938900203666,0.019008825526137134,0.017651052274270197,0.019687712152070606,0.019687712152070606,0.019687712152070606,0.019008825526137134,0.019008825526137134,0.019008825526137134,0.019687712152070606,0.019687712152070606,0.019687712152070606,0.019687712152070606,0.019687712152070606,0.019687712152070606,0.019687712152070606,0.019687712152070606,0.019687712152070606,0.019687712152070606,0.019687712152070606,0.019687712152070606,0.019687712152070606,0.019008825526137134,0.019687712152070606,0.019008825526137134,0.018329938900203666,0.019687712152070606,0.019687712152070606,0.019687712152070606,0.018329938900203666,0.019008825526137134,0.019687712152070606,0.018329938900203666,0.019687712152070606,0.019008825526137134
S6_D8 hbo,0.0193596425912137,0.0193596425912137,0.0193596425912137,0.0193596425912137,0.0193596425912137,0.0193596425912137,0.0193596425912137,0.0193596425912137,0.0193596425912137,0.0193596425912137,0.01712583767684289,0.0193596425912137,0.0193596425912137,0.0193596425912137,0.0193596425912137,0.017870439314966492,0.018615040953090096,0.018615040953090096,0.0193596425912137,0.018615040953090096,0.0193596425912137,0.0193596425912137,0.0193596425912137,0.0193596425912137,0.0193596425912137,0.0193596425912137,0.0193596425912137,0.0193596425912137,0.0193596425912137,0.0193596425912137,0.0193596425912137,0.0193596425912137,0.0193596425912137,0.0193596425912137,0.0193596425912137,0.0193596425912137,0.0193596425912137,0.0193596425912137,0.0193596425912137,0.0193596425912137,0.0193596425912137,0.0193596425912137,0.018615040953090096,0.0193596425912137,0.0193596425912137,0.0193596425912137,0.0193596425912137,0.0193596425912137,0.0193596425912137,0.0193596425912137,0.0193596425912137,0.0193596425912137
S7_D5 hbo,0.018654230512991338,0.018654230512991338,0.019986675549633577,0.020652898067954697,0.019320453031312457,0.019320453031312457,0.019320453031312457,0.019320453031312457,0.018654230512991338,0.018654230512991338,0.016655562958027982,0.018654230512991338,0.019986675549633577,0.019320453031312457,0.019986675549633577,0.015989340439706862,0.01798800799467022,0.01798800799467022,0.018654230512991338,0.017321785476349102,0.019986675549633577,0.020652898067954697,0.019320453031312457,0.018654230512991338,0.018654230512991338,0.018654230512991338,0.019320453031312457,0.019986675549633577,0.019320453031312457,0.020652898067954697,0.020652898067954697,0.020652898067954697,0.020652898067954697,0.020652898067954697,0.019320453031312457,0.019986675549633577,0.019986675549633577,0.019320453031312457,0.020652898067954697,0.018654230512991338,0.019320453031312457,0.018654230512991338,0.01798800799467022,0.019986675549633577,0.019320453031312457,0.019986675549633577,0.018654230512991338,0.018654230512991338,0.019320453031312457,0.018654230512991338,0.019986675549633577,0.018654230512991338
S7_D7 hbo,0.018617021276595744,0.018617021276595744,0.0199468085106383,0.020611702127659573,0.01928191489361702,0.01928191489361702,0.01928191489361702,0.01928191489361702,0.018617021276595744,0.018617021276595744,0.016622340425531915,0.018617021276595744,0.0199468085106383,0.01928191489361702,0.0199468085106383,0.015957446808510637,0.01795212765957447,0.01795212765957447,0.018617021276595744,0.017287234042553192,0.0199468085106383,0.020611702127659573,0.01928191489361702,0.018617021276595744,0.018617021276595744,0.018617021276595744,0.01928191489361702,0.0199468085106383,0.01928191489361702,0.02127659574468085,0.02127659574468085,0.020611702127659573,0.020611702127659573,0.020611702127659573,0.01928191489361702,0.0199468085106383,0.0199468085106383,0.01928191489361702,0.02127659574468085,0.018617021276595744,0.01928191489361702,0.018617021276595744,0.01795212765957447,0.0199468085106383,0.01928191489361702,0.0199468085106383,0.018617021276595744,0.018617021276595744,0.01928191489361702,0.018617021276595744,0.0199468085106383,0.018617021276595744
S7_D8 hbo,0.018754186202277295,0.018754186202277295,0.020093770931011386,0.020093770931011386,0.01942397856664434,0.01942397856664434,0.01942397856664434,0.01942397856664434,0.018754186202277295,0.018754186202277295,0.016744809109176157,0.018754186202277295,0.020093770931011386,0.01942397856664434,0.020093770931011386,0.016075016744809108,0.01808439383791025,0.01808439383791025,0.018754186202277295,0.017414601473543203,0.020093770931011386,0.020093770931011386,0.01942397856664434,0.018754186202277295,0.018754186202277295,0.018754186202277295,0.01942397856664434,0.020093770931011386,0.01942397856664434,0.020093770931011386,0.020093770931011386,0.020093770931011386,0.020093770931011386,0.020093770931011386,0.01942397856664434,0.020093770931011386,0.020093770931011386,0.01942397856664434,0.020093770931011386,0.018754186202277295,0.01942397856664434,0.018754186202277295,0.01808439383791025,0.020093770931011386,0.01942397856664434,0.020093770931011386,0.018754186202277295,0.018754186202277295,0.01942397856664434,0.018754186202277295,0.020093770931011386,0.018754186202277295
S8_D6 hbo,0.0189208128941836,0.0189208128941836,0.019621583742116328,0.019621583742116328,0.019621583742116328,0.019621583742116328,0.019621583742116328,0.019621583742116328,0.0189208128941836,0.0189208128941836,0.016818500350385426,0.0189208128941836,0.019621583742116328,0.019621583742116328,0.019621583742116328,0.016818500350385426,0.018220042046250877,0.018220042046250877,0.0189208128941836,0.018220042046250877,0.019621583742116328,0.019621583742116328,0.019621583742116328,0.0189208128941836,0.0189208128941836,0.0189208128941836,0.019621583742116328,0.019621583742116328,0.019621583742116328,0.019621583742116328,0.019621583742116328,0.019621583742116328,0.019621583742116328,0.019621583742116328,0.019621583742116328,0.019621583742116328,0.019621583742116328,0.019621583742116328,0.019621583742116328,0.0189208128941836,0.019621583742116328,0.0189208128941836,0.018220042046250877,0.019621583742116328,0.019621583742116328,0.019621583742116328,0.0189208128941836,0.019621583742116328,0.019621583742116328,0.0189208128941836,0.019621583742116328,0.019621583742116328
S8_D8 hbo,0.0189208128941836,0.0189208128941836,0.019621583742116328,0.019621583742116328,0.019621583742116328,0.019621583742116328,0.019621583742116328,0.019621583742116328,0.0189208128941836,0.0189208128941836,0.016818500350385426,0.0189208128941836,0.019621583742116328,0.019621583742116328,0.019621583742116328,0.016818500350385426,0.018220042046250877,0.018220042046250877,0.0189208128941836,0.018220042046250877,0.019621583742116328,0.019621583742116328,0.019621583742116328,0.0189208128941836,0.0189208128941836,0.0189208128941836,0.019621583742116328,0.019621583742116328,0.019621583742116328,0.019621583742116328,0.019621583742116328,0.019621583742116328,0.019621583742116328,0.019621583742116328,0.019621583742116328,0.019621583742116328,0.019621583742116328,0.019621583742116328,0.019621583742116328,0.0189208128941836,0.019621583742116328,0.0189208128941836,0.018220042046250877,0.019621583742116328,0.019621583742116328,0.019621583742116328,0.0189208128941836,0.019621583742116328,0.019621583742116328,0.0189208128941836,0.019621583742116328,0.019621583742116328
S8_D15 hbo,0.0189208128941836,0.0189208128941836,0.019621583742116328,0.019621583742116328,0.019621583742116328,0.019621583742116328,0.019621583742116328,0.019621583742116328,0.0189208128941836,0.0189208128941836,0.016818500350385426,0.0189208128941836,0.019621583742116328,0.019621583742116328,0.019621583742116328,0.016818500350385426,0.018220042046250877,0.018220042046250877,0.0189208128941836,0.018220042046250877,0.019621583742116328,0.019621583742116328,0.019621583742116328,0.0189208128941836,0.0189208128941836,0.0189208128941836,0.019621583742116328,0.019621583742116328,0.019621583742116328,0.019621583742116328,0.019621583742116328,0.019621583742116328,0.019621583742116328,0.019621583742116328,0.019621583742116328,0.019621583742116328,0.019621583742116328,0.019621583742116328,0.019621583742116328,0.0189208128941836,0.019621583742116328,0.0189208128941836,0.018220042046250877,0.019621583742116328,0.019621583742116328,0.019621583742116328,0.0189208128941836,0.019621583742116328,0.019621583742116328,0.0189208128941836,0.019621583742116328,0.019621583742116328
S9_D2 hbo,0.018754186202277295,0.018754186202277295,0.020093770931011386,0.020093770931011386,0.01942397856664434,0.01942397856664434,0.01942397856664434,0.01942397856664434,0.018754186202277295,0.018754186202277295,0.016744809109176157,0.018754186202277295,0.020093770931011386,0.01942397856664434,0.020093770931011386,0.016075016744809108,0.01808439383791025,0.01808439383791025,0.018754186202277295,0.017414601473543203,0.020093770931011386,0.020093770931011386,0.01942397856664434,0.018754186202277295,0.018754186202277295,0.018754186202277295,0.01942397856664434,0.020093770931011386,0.01942397856664434,0.020093770931011386,0.020093770931011386,0.020093770931011386,0.020093770931011386,0.020093770931011386,0.01942397856664434,0.020093770931011386,0.020093770931011386,0.01942397856664434,0.020093770931011386,0.018754186202277295,0.01942397856664434,0.018754186202277295,0.01808439383791025,0.020093770931011386,0.01942397856664434,0.020093770931011386,0.018754186202277295,0.018754186202277295,0.01942397856664434,0.018754186202277295,0.020093770931011386,0.018754186202277295
S9_D9 hbo,0.01831262262916939,0.01831262262916939,0.020274689339437543,0.020274689339437543,0.01962066710268149,0.01962066710268149,0.01962066710268149,0.01962066710268149,0.01831262262916939,0.01896664486592544,0.016350555918901243,0.01896664486592544,0.020274689339437543,0.01962066710268149,0.020274689339437543,0.015696533682145193,0.01765860039241334,0.01765860039241334,0.01896664486592544,0.017004578155657292,0.020274689339437543,0.020928711576193592,0.01962066710268149,0.01831262262916939,0.01831262262916939,0.01831262262916939,0.01962066710268149,0.020274689339437543,0.01962066710268149,0.020274689339437543,0.020928711576193592,0.020928711576193592,0.020928711576193592,0.020928711576193592,0.01896664486592544,0.020274689339437543,0.020274689339437543,0.01962066710268149,0.020928711576193592,0.01896664486592544,0.01962066710268149,0.01831262262916939,0.01765860039241334,0.01962066710268149,0.01896664486592544,0.020274689339437543,0.01831262262916939,0.01831262262916939,0.01896664486592544,0.01831262262916939,0.01962066710268149,0.01831262262916939
S9_D11 hbo,0.018754186202277295,0.018754186202277295,0.020093770931011386,0.020093770931011386,0.01942397856664434,0.01942397856664434,0.01942397856664434,0.01942397856664434,0.018754186202277295,0.018754186202277295,0.016744809109176157,0.018754186202277295,0.020093770931011386,0.01942397856664434,0.020093770931011386,0.016075016744809108,0.01808439383791025,0.01808439383791025,0.018754186202277295,0.017414601473543203,0.020093770931011386,0.020093770931011386,0.01942397856664434,0.018754186202277295,0.018754186202277295,0.018754186202277295,0.01942397856664434,0.020093770931011386,0.01942397856664434,0.020093770931011386,0.020093770931011386,0.020093770931011386,0.020093770931011386,0.020093770931011386,0.01942397856664434,0.020093770931011386,0.020093770931011386,0.01942397856664434,0.020093770931011386,0.018754186202277295,0.01942397856664434,0.018754186202277295,0.01808439383791025,0.020093770931011386,0.01942397856664434,0.020093770931011386,0.018754186202277295,0.018754186202277295,0.01942397856664434,0.018754186202277295,0.020093770931011386,0.018754186202277295
S10_D9 hbo,0.018505825908156272,0.018505825908156272,0.019876627827278958,0.0205620287868403,0.019191226867717615,0.019191226867717615,0.019191226867717615,0.019191226867717615,0.018505825908156272,0.018505825908156272,0.01644962302947224,0.018505825908156272,0.019876627827278958,0.019191226867717615,0.019876627827278958,0.01644962302947224,0.01782042494859493,0.01782042494859493,0.018505825908156272,0.01782042494859493,0.019876627827278958,0.0205620287868403,0.019191226867717615,0.018505825908156272,0.018505825908156272,0.018505825908156272,0.019191226867717615,0.019876627827278958,0.019191226867717615,0.021247429746401644,0.02193283070596299,0.0205620287868403,0.0205620287868403,0.0205620287868403,0.019191226867717615,0.019876627827278958,0.019876627827278958,0.019191226867717615,0.021247429746401644,0.018505825908156272,0.019191226867717615,0.018505825908156272,0.01782042494859493,0.019876627827278958,0.019191226867717615,0.019876627827278958,0.019191226867717615,0.019191226867717615,0.019191226867717615,0.019191226867717615,0.019876627827278958,0.019191226867717615
S10_D10 hbo,0.018604651162790697,0.018604651162790697,0.019933554817275746,0.020598006644518274,0.019269102990033222,0.019269102990033222,0.019269102990033222,0.019269102990033222,0.018604651162790697,0.018604651162790697,0.016611295681063124,0.018604651162790697,0.019933554817275746,0.019269102990033222,0.019933554817275746,0.015946843853820596,0.017940199335548173,0.017940199335548173,0.018604651162790697,0.01727574750830565,0.019933554817275746,0.020598006644518274,0.019269102990033222,0.018604651162790697,0.018604651162790697,0.018604651162790697,0.019269102990033222,0.019933554817275746,0.019269102990033222,0.0212624584717608,0.021926910299003323,0.020598006644518274,0.020598006644518274,0.020598006644518274,0.019269102990033222,0.019933554817275746,0.019933554817275746,0.019269102990033222,0.0212624584717608,0.018604651162790697,0.019269102990033222,0.018604651162790697,0.017940199335548173,0.019933554817275746,0.019269102990033222,0.019933554817275746,0.018604651162790697,0.018604651162790697,0.019269102990033222,0.018604651162790697,0.019933554817275746,0.018604651162790697
S10_D12 hbo,0.018276762402088774,0.018276762402088774,0.020234986945169713,0.020234986945169713,0.0195822454308094,0.0195822454308094,0.0195822454308094,0.0195822454308094,0.018276762402088774,0.018929503916449087,0.016318537859007835,0.018929503916449087,0.020234986945169713,0.0195822454308094,0.020234986945169713,0.015665796344647518,0.01762402088772846,0.01762402088772846,0.018929503916449087,0.016971279373368148,0.020234986945169713,0.020887728459530026,0.0195822454308094,0.018276762402088774,0.018276762402088774,0.018276762402088774,0.0195822454308094,0.020234986945169713,0.0195822454308094,0.020887728459530026,0.02154046997389034,0.020887728459530026,0.020887728459530026,0.020887728459530026,0.018929503916449087,0.020234986945169713,0.020234986945169713,0.0195822454308094,0.02154046997389034,0.018929503916449087,0.0195822454308094,0.018276762402088774,0.01762402088772846,0.0195822454308094,0.018929503916449087,0.020234986945169713,0.018276762402088774,0.018276762402088774,0.018929503916449087,0.018276762402088774,0.0195822454308094,0.018276762402088774
S11_D9 hbo,0.018617021276595744,0.018617021276595744,0.0199468085106383,0.020611702127659573,0.01928191489361702,0.01928191489361702,0.01928191489361702,0.01928191489361702,0.018617021276595744,0.018617021276595744,0.016622340425531915,0.018617021276595744,0.0199468085106383,0.01928191489361702,0.0199468085106383,0.015957446808510637,0.01795212765957447,0.01795212765957447,0.018617021276595744,0.017287234042553192,0.0199468085106383,0.020611702127659573,0.01928191489361702,0.018617021276595744,0.018617021276595744,0.018617021276595744,0.01928191489361702,0.0199468085106383,0.01928191489361702,0.02127659574468085,0.02127659574468085,0.020611702127659573,0.020611702127659573,0.020611702127659573,0.01928191489361702,0.0199468085106383,0.0199468085106383,0.01928191489361702,0.02127659574468085,0.018617021276595744,0.01928191489361702,0.018617021276595744,0.01795212765957447,0.0199468085106383,0.01928191489361702,0.0199468085106383,0.018617021276595744,0.018617021276595744,0.01928191489361702,0.018617021276595744,0.0199468085106383,0.018617021276595744
S11_D11 hbo,0.018617021276595744,0.018617021276595744,0.0199468085106383,0.020611702127659573,0.01928191489361702,0.01928191489361702,0.01928191489361702,0.01928191489361702,0.018617021276595744,0.018617021276595744,0.016622340425531915,0.018617021276595744,0.0199468085106383,0.01928191489361702,0.0199468085106383,0.015957446808510637,0.01795212765957447,0.01795212765957447,0.018617021276595744,0.017287234042553192,0.0199468085106383,0.020611702127659573,0.01928191489361702,0.018617021276595744,0.018617021276595744,0.018617021276595744,0.01928191489361702,0.0199468085106383,0.01928191489361702,0.02127659574468085,0.02127659574468085,0.020611702127659573,0.020611702127659573,0.020611702127659573,0.01928191489361702,0.0199468085106383,0.0199468085106383,0.01928191489361702,0.02127659574468085,0.018617021276595744,0.01928191489361702,0.018617021276595744,0.01795212765957447,0.0199468085106383,0.01928191489361702,0.0199468085106383,0.018617021276595744,0.018617021276595744,0.01928191489361702,0.018617021276595744,0.0199468085106383,0.018617021276595744
S11_D12 hbo,0.018659295093296474,0.018659295093296474,0.020041465100207326,0.020041465100207326,0.019350380096751902,0.019350380096751902,0.019350380096751902,0.019350380096751902,0.018659295093296474,0.018659295093296474,0.0165860400829302,0.018659295093296474,0.020041465100207326,0.019350380096751902,0.020041465100207326,0.0165860400829302,0.01796821008984105,0.01796821008984105,0.018659295093296474,0.01796821008984105,0.020041465100207326,0.020041465100207326,0.019350380096751902,0.018659295093296474,0.018659295093296474,0.018659295093296474,0.019350380096751902,0.020041465100207326,0.019350380096751902,0.020041465100207326,0.020041465100207326,0.020041465100207326,0.020041465100207326,0.020041465100207326,0.019350380096751902,0.020041465100207326,0.020041465100207326,0.019350380096751902,0.020041465100207326,0.018659295093296474,0.019350380096751902,0.018659295093296474,0.01796821008984105,0.020041465100207326,0.019350380096751902,0.020041465100207326,0.019350380096751902,0.019350380096751902,0.019350380096751902,0.019350380096751902,0.020041465100207326,0.019350380096751902
S11_D13 hbo,0.018654230512991338,0.018654230512991338,0.019986675549633577,0.020652898067954697,0.019320453031312457,0.019320453031312457,0.019320453031312457,0.019320453031312457,0.018654230512991338,0.018654230512991338,0.016655562958027982,0.018654230512991338,0.019986675549633577,0.019320453031312457,0.019986675549633577,0.015989340439706862,0.01798800799467022,0.01798800799467022,0.018654230512991338,0.017321785476349102,0.019986675549633577,0.020652898067954697,0.019320453031312457,0.018654230512991338,0.018654230512991338,0.018654230512991338,0.019320453031312457,0.019986675549633577,0.019320453031312457,0.020652898067954697,0.020652898067954697,0.020652898067954697,0.020652898067954697,0.020652898067954697,0.019320453031312457,0.019986675549633577,0.019986675549633577,0.019320453031312457,0.020652898067954697,0.018654230512991338,0.019320453031312457,0.018654230512991338,0.01798800799467022,0.019986675549633577,0.019320453031312457,0.019986675549633577,0.018654230512991338,0.018654230512991338,0.019320453031312457,0.018654230512991338,0.019986675549633577,0.018654230512991338
S12_D10 hbo,0.018654230512991338,0.018654230512991338,0.019986675549633577,0.020652898067954697,0.019320453031312457,0.019320453031312457,0.019320453031312457,0.019320453031312457,0.018654230512991338,0.018654230512991338,0.016655562958027982,0.018654230512991338,0.019986675549633577,0.019320453031312457,0.019986675549633577,0.015989340439706862,0.01798800799467022,0.01798800799467022,0.018654230512991338,0.017321785476349102,0.019986675549633577,0.020652898067954697,0.019320453031312457,0.018654230512991338,0.018654230512991338,0.018654230512991338,0.019320453031312457,0.019986675549633577,0.019320453031312457,0.020652898067954697,0.020652898067954697,0.020652898067954697,0.020652898067954697,0.020652898067954697,0.019320453031312457,0.019986675549633577,0.019986675549633577,0.019320453031312457,0.020652898067954697,0.018654230512991338,0.019320453031312457,0.018654230512991338,0.01798800799467022,0.019986675549633577,0.019320453031312457,0.019986675549633577,0.018654230512991338,0.018654230512991338,0.019320453031312457,0.018654230512991338,0.019986675549633577,0.018654230512991338
S12_D12 hbo,0.018408941485864562,0.018408941485864562,0.020381328073635765,0.01972386587771203,0.01972386587771203,0.01972386587771203,0.01972386587771203,0.01972386587771203,0.018408941485864562,0.0190664036817883,0.01643655489809336,0.0190664036817883,0.020381328073635765,0.01972386587771203,0.020381328073635765,0.015779092702169626,0.01775147928994083,0.01775147928994083,0.0190664036817883,0.017094017094017096,0.020381328073635765,0.020381328073635765,0.01972386587771203,0.018408941485864562,0.018408941485864562,0.018408941485864562,0.01972386587771203,0.020381328073635765,0.01972386587771203,0.01972386587771203,0.020381328073635765,0.020381328073635765,0.020381328073635765,0.020381328073635765,0.0190664036817883,0.020381328073635765,0.020381328073635765,0.01972386587771203,0.020381328073635765,0.0190664036817883,0.01972386587771203,0.018408941485864562,0.01775147928994083,0.01972386587771203,0.0190664036817883,0.020381328073635765,0.018408941485864562,0.018408941485864562,0.0190664036817883,0.018408941485864562,0.01972386587771203,0.018408941485864562
S12_D14 hbo,0.018604651162790697,0.018604651162790697,0.019933554817275746,0.020598006644518274,0.019269102990033222,0.019269102990033222,0.019269102990033222,0.019269102990033222,0.018604651162790697,0.018604651162790697,0.016611295681063124,0.018604651162790697,0.019933554817275746,0.019269102990033222,0.019933554817275746,0.015946843853820596,0.017940199335548173,0.017940199335548173,0.018604651162790697,0.01727574750830565,0.019933554817275746,0.020598006644518274,0.019269102990033222,0.018604651162790697,0.018604651162790697,0.018604651162790697,0.019269102990033222,0.019933554817275746,0.019269102990033222,0.0212624584717608,0.021926910299003323,0.020598006644518274,0.020598006644518274,0.020598006644518274,0.019269102990033222,0.019933554817275746,0.019933554817275746,0.019269102990033222,0.0212624584717608,0.018604651162790697,0.019269102990033222,0.018604651162790697,0.017940199335548173,0.019933554817275746,0.019269102990033222,0.019933554817275746,0.018604651162790697,0.018604651162790697,0.019269102990033222,0.018604651162790697,0.019933554817275746,0.018604651162790697
S13_D6 hbo,0.019008825526137134,0.019008825526137134,0.019687712152070606,0.019687712152070606,0.019687712152070606,0.019687712152070606,0.019687712152070606,0.019687712152070606,0.019008825526137134,0.019008825526137134,0.01697216564833673,0.019008825526137134,0.019687712152070606,0.019687712152070606,0.019687712152070606,0.016293279022403257,0.018329938900203666,0.018329938900203666,0.019008825526137134,0.017651052274270197,0.019687712152070606,0.019687712152070606,0.019687712152070606,0.019008825526137134,0.019008825526137134,0.019008825526137134,0.019687712152070606,0.019687712152070606,0.019687712152070606,0.019687712152070606,0.019687712152070606,0.019687712152070606,0.019687712152070606,0.019687712152070606,0.019687712152070606,0.019687712152070606,0.019687712152070606,0.019687712152070606,0.019687712152070606,0.019008825526137134,0.019687712152070606,0.019008825526137134,0.018329938900203666,0.019687712152070606,0.019687712152070606,0.019687712152070606,0.018329938900203666,0.019008825526137134,0.019687712152070606,0.018329938900203666,0.019687712152070606,0.019008825526137134
S13_D11 hbo,0.018408941485864562,0.018408941485864562,0.020381328073635765,0.01972386587771203,0.01972386587771203,0.01972386587771203,0.01972386587771203,0.01972386587771203,0.018408941485864562,0.0190664036817883,0.01643655489809336,0.0190664036817883,0.020381328073635765,0.01972386587771203,0.020381328073635765,0.015779092702169626,0.01775147928994083,0.01775147928994083,0.0190664036817883,0.017094017094017096,0.020381328073635765,0.020381328073635765,0.01972386587771203,0.018408941485864562,0.018408941485864562,0.018408941485864562,0.01972386587771203,0.020381328073635765,0.01972386587771203,0.01972386587771203,0.020381328073635765,0.020381328073635765,0.020381328073635765,0.020381328073635765,0.0190664036817883,0.020381328073635765,0.020381328073635765,0.01972386587771203,0.020381328073635765,0.0190664036817883,0.01972386587771203,0.018408941485864562,0.01775147928994083,0.01972386587771203,0.0190664036817883,0.020381328073635765,0.018408941485864562,0.018408941485864562,0.0190664036817883,0.018408941485864562,0.01972386587771203,0.018408941485864562
S13_D13 hbo,0.0189208128941836,0.0189208128941836,0.019621583742116328,0.019621583742116328,0.019621583742116328,0.019621583742116328,0.019621583742116328,0.019621583742116328,0.0189208128941836,0.0189208128941836,0.016818500350385426,0.0189208128941836,0.019621583742116328,0.019621583742116328,0.019621583742116328,0.016818500350385426,0.018220042046250877,0.018220042046250877,0.0189208128941836,0.018220042046250877,0.019621583742116328,0.019621583742116328,0.019621583742116328,0.0189208128941836,0.0189208128941836,0.0189208128941836,0.019621583742116328,0.019621583742116328,0.019621583742116328,0.019621583742116328,0.019621583742116328,0.019621583742116328,0.019621583742116328,0.019621583742116328,0.019621583742116328,0.019621583742116328,0.019621583742116328,0.019621583742116328,0.019621583742116328,0.0189208128941836,0.019621583742116328,0.0189208128941836,0.018220042046250877,0.019621583742116328,0.019621583742116328,0.019621583742116328,0.0189208128941836,0.019621583742116328,0.019621583742116328,0.0189208128941836,0.019621583742116328,0.019621583742116328
S13_D15 hbo,0.01939655172413793,0.01939655172413793,0.01939655172413793,0.01939655172413793,0.01939655172413793,0.01939655172413793,0.01939655172413793,0.01939655172413793,0.01939655172413793,0.01939655172413793,0.017241379310344827,0.01939655172413793,0.01939655172413793,0.01939655172413793,0.01939655172413793,0.017241379310344827,0.01867816091954023,0.01867816091954023,0.01939655172413793,0.01867816091954023,0.01939655172413793,0.01939655172413793,0.01939655172413793,0.01939655172413793,0.01939655172413793,0.01939655172413793,0.01939655172413793,0.01939655172413793,0.01939655172413793,0.01939655172413793,0.01939655172413793,0.01939655172413793,0.01939655172413793,0.01939655172413793,0.01939655172413793,0.01939655172413793,0.01939655172413793,0.01939655172413793,0.01939655172413793,0.01939655172413793,0.01939655172413793,0.01939655172413793,0.01867816091954023,0.01939655172413793,0.01939655172413793,0.01939655172413793,0.01867816091954023,0.01939655172413793,0.01939655172413793,0.01867816091954023,0.01939655172413793,0.01939655172413793
S14_D12 hbo,0.018556701030927835,0.018556701030927835,0.01993127147766323,0.020618556701030927,0.019243986254295534,0.019243986254295534,0.019243986254295534,0.019243986254295534,0.018556701030927835,0.018556701030927835,0.016494845360824743,0.018556701030927835,0.01993127147766323,0.019243986254295534,0.01993127147766323,0.016494845360824743,0.017869415807560136,0.017869415807560136,0.018556701030927835,0.017869415807560136,0.01993127147766323,0.020618556701030927,0.019243986254295534,0.018556701030927835,0.018556701030927835,0.018556701030927835,0.019243986254295534,0.01993127147766323,0.019243986254295534,0.020618556701030927,0.020618556701030927,0.020618556701030927,0.020618556701030927,0.020618556701030927,0.019243986254295534,0.01993127147766323,0.01993127147766323,0.019243986254295534,0.020618556701030927,0.018556701030927835,0.019243986254295534,0.018556701030927835,0.017869415807560136,0.01993127147766323,0.019243986254295534,0.01993127147766323,0.019243986254295534,0.019243986254295534,0.019243986254295534,0.019243986254295534,0.01993127147766323,0.019243986254295534
S14_D13 hbo,0.018659295093296474,0.018659295093296474,0.020041465100207326,0.020041465100207326,0.019350380096751902,0.019350380096751902,0.019350380096751902,0.019350380096751902,0.018659295093296474,0.018659295093296474,0.0165860400829302,0.018659295093296474,0.020041465100207326,0.019350380096751902,0.020041465100207326,0.0165860400829302,0.01796821008984105,0.01796821008984105,0.018659295093296474,0.01796821008984105,0.020041465100207326,0.020041465100207326,0.019350380096751902,0.018659295093296474,0.018659295093296474,0.018659295093296474,0.019350380096751902,0.020041465100207326,0.019350380096751902,0.020041465100207326,0.020041465100207326,0.020041465100207326,0.020041465100207326,0.020041465100207326,0.019350380096751902,0.020041465100207326,0.020041465100207326,0.019350380096751902,0.020041465100207326,0.018659295093296474,0.019350380096751902,0.018659295093296474,0.01796821008984105,0.020041465100207326,0.019350380096751902,0.020041465100207326,0.019350380096751902,0.019350380096751902,0.019350380096751902,0.019350380096751902,0.020041465100207326,0.019350380096751902
S14_D14 hbo,0.018654230512991338,0.018654230512991338,0.019986675549633577,0.020652898067954697,0.019320453031312457,0.019320453031312457,0.019320453031312457,0.019320453031312457,0.018654230512991338,0.018654230512991338,0.016655562958027982,0.018654230512991338,0.019986675549633577,0.019320453031312457,0.019986675549633577,0.015989340439706862,0.01798800799467022,0.01798800799467022,0.018654230512991338,0.017321785476349102,0.019986675549633577,0.020652898067954697,0.019320453031312457,0.018654230512991338,0.018654230512991338,0.018654230512991338,0.019320453031312457,0.019986675549633577,0.019320453031312457,0.020652898067954697,0.020652898067954697,0.020652898067954697,0.020652898067954697,0.020652898067954697,0.019320453031312457,0.019986675549633577,0.019986675549633577,0.019320453031312457,0.020652898067954697,0.018654230512991338,0.019320453031312457,0.018654230512991338,0.01798800799467022,0.019986675549633577,0.019320453031312457,0.019986675549633577,0.018654230512991338,0.018654230512991338,0.019320453031312457,0.018654230512991338,0.019986675549633577,0.018654230512991338
S14_D16 hbo,0.01845018450184502,0.01845018450184502,0.01992619926199262,0.020664206642066422,0.01918819188191882,0.01918819188191882,0.01918819188191882,0.01918819188191882,0.01845018450184502,0.01845018450184502,0.016236162361623615,0.01845018450184502,0.01992619926199262,0.01918819188191882,0.01992619926199262,0.017712177121771217,0.017712177121771217,0.017712177121771217,0.01845018450184502,0.017712177121771217,0.01992619926199262,0.020664206642066422,0.01918819188191882,0.01845018450184502,0.01845018450184502,0.01845018450184502,0.01918819188191882,0.01992619926199262,0.01918819188191882,0.020664206642066422,0.020664206642066422,0.020664206642066422,0.020664206642066422,0.020664206642066422,0.01918819188191882,0.01992619926199262,0.01992619926199262,0.01918819188191882,0.020664206642066422,0.01845018450184502,0.01918819188191882,0.01845018450184502,0.017712177121771217,0.01992619926199262,0.01918819188191882,0.01992619926199262,0.01992619926199262,0.01918819188191882,0.01918819188191882,0.01992619926199262,0.01992619926199262,0.01918819188191882
S15_D13 hbo,0.01859799713876967,0.01859799713876967,0.020028612303290415,0.020028612303290415,0.019313304721030045,0.019313304721030045,0.019313304721030045,0.019313304721030045,0.01859799713876967,0.01859799713876967,0.016452074391988557,0.01859799713876967,0.020028612303290415,0.019313304721030045,0.020028612303290415,0.017167381974248927,0.0178826895565093,0.0178826895565093,0.01859799713876967,0.0178826895565093,0.020028612303290415,0.020028612303290415,0.019313304721030045,0.01859799713876967,0.01859799713876967,0.01859799713876967,0.019313304721030045,0.020028612303290415,0.019313304721030045,0.020028612303290415,0.020028612303290415,0.020028612303290415,0.020028612303290415,0.020028612303290415,0.019313304721030045,0.020028612303290415,0.020028612303290415,0.019313304721030045,0.020028612303290415,0.01859799713876967,0.019313304721030045,0.01859799713876967,0.0178826895565093,0.020028612303290415,0.019313304721030045,0.020028612303290415,0.020028612303290415,0.019313304721030045,0.019313304721030045,0.020028612303290415,0.020028612303290415,0.019313304721030045
S15_D15 hbo,0.018659295093296474,0.018659295093296474,0.020041465100207326,0.020041465100207326,0.019350380096751902,0.019350380096751902,0.019350380096751902,0.019350380096751902,0.018659295093296474,0.018659295093296474,0.0165860400829302,0.018659295093296474,0.020041465100207326,0.019350380096751902,0.020041465100207326,0.0165860400829302,0.01796821008984105,0.01796821008984105,0.018659295093296474,0.01796821008984105,0.020041465100207326,0.020041465100207326,0.019350380096751902,0.018659295093296474,0.018659295093296474,0.018659295093296474,0.019350380096751902,0.020041465100207326,0.019350380096751902,0.020041465100207326,0.020041465100207326,0.020041465100207326,0.020041465100207326,0.020041465100207326,0.019350380096751902,0.020041465100207326,0.020041465100207326,0.019350380096751902,0.020041465100207326,0.018659295093296474,0.019350380096751902,0.018659295093296474,0.01796821008984105,0.020041465100207326,0.019350380096751902,0.020041465100207326,0.019350380096751902,0.019350380096751902,0.019350380096751902,0.019350380096751902,0.020041465100207326,0.019350380096751902
S15_D16 hbo,0.01845018450184502,0.01845018450184502,0.01992619926199262,0.020664206642066422,0.01918819188191882,0.01918819188191882,0.01918819188191882,0.01918819188191882,0.01845018450184502,0.01845018450184502,0.016236162361623615,0.01845018450184502,0.01992619926199262,0.01918819188191882,0.01992619926199262,0.017712177121771217,0.017712177121771217,0.017712177121771217,0.01845018450184502,0.017712177121771217,0.01992619926199262,0.020664206642066422,0.01918819188191882,0.01845018450184502,0.01845018450184502,0.01845018450184502,0.01918819188191882,0.01992619926199262,0.01918819188191882,0.020664206642066422,0.020664206642066422,0.020664206642066422,0.020664206642066422,0.020664206642066422,0.01918819188191882,0.01992619926199262,0.01992619926199262,0.01918819188191882,0.020664206642066422,0.01845018450184502,0.01918819188191882,0.01845018450184502,0.017712177121771217,0.01992619926199262,0.01918819188191882,0.01992619926199262,0.01992619926199262,0.01918819188191882,0.01918819188191882,0.01992619926199262,0.01992619926199262,0.01918819188191882
S16_D14 hbo,0.018556701030927835,0.018556701030927835,0.01993127147766323,0.020618556701030927,0.019243986254295534,0.019243986254295534,0.019243986254295534,0.019243986254295534,0.018556701030927835,0.018556701030927835,0.016494845360824743,0.018556701030927835,0.01993127147766323,0.019243986254295534,0.01993127147766323,0.016494845360824743,0.017869415807560136,0.017869415807560136,0.018556701030927835,0.017869415807560136,0.01993127147766323,0.020618556701030927,0.019243986254295534,0.018556701030927835,0.018556701030927835,0.018556701030927835,0.019243986254295534,0.01993127147766323,0.019243986254295534,0.020618556701030927,0.020618556701030927,0.020618556701030927,0.020618556701030927,0.020618556701030927,0.019243986254295534,0.01993127147766323,0.01993127147766323,0.019243986254295534,0.020618556701030927,0.018556701030927835,0.019243986254295534,0.018556701030927835,0.017869415807560136,0.01993127147766323,0.019243986254295534,0.01993127147766323,0.019243986254295534,0.019243986254295534,0.019243986254295534,0.019243986254295534,0.01993127147766323,0.019243986254295534
S16_D16 hbo,0.01859799713876967,0.01859799713876967,0.020028612303290415,0.020028612303290415,0.019313304721030045,0.019313304721030045,0.019313304721030045,0.019313304721030045,0.01859799713876967,0.01859799713876967,0.016452074391988557,0.01859799713876967,0.020028612303290415,0.019313304721030045,0.020028612303290415,0.017167381974248927,0.0178826895565093,0.0178826895565093,0.01859799713876967,0.0178826895565093,0.020028612303290415,0.020028612303290415,0.019313304721030045,0.01859799713876967,0.01859799713876967,0.01859799713876967,0.019313304721030045,0.020028612303290415,0.019313304721030045,0.020028612303290415,0.020028612303290415,0.020028612303290415,0.020028612303290415,0.020028612303290415,0.019313304721030045,0.020028612303290415,0.020028612303290415,0.019313304721030045,0.020028612303290415,0.01859799713876967,0.019313304721030045,0.01859799713876967,0.0178826895565093,0.020028612303290415,0.019313304721030045,0.020028612303290415,0.020028612303290415,0.019313304721030045,0.019313304721030045,0.020028612303290415,0.020028612303290415,0.019313304721030045
