,S1_D1 hbo,S1_D3 hbo,S2_D1 hbo,S2_D2 hbo,S2_D4 hbo,S3_D1 hbo,S3_D3 hbo,S3_D4 hbo,S3_D5 hbo,S4_D2 hbo,S4_D4 hbo,S4_D6 hbo,S4_D11 hbo,S5_D3 hbo,S5_D5 hbo,S5_D7 hbo,S6_D4 hbo,S6_D5 hbo,S6_D6 hbo,S6_D8 hbo,S7_D5 hbo,S7_D7 hbo,S7_D8 hbo,S8_D6 hbo,S8_D8 hbo,S8_D15 hbo,S9_D2 hbo,S9_D9 hbo,S9_D11 hbo,S10_D9 hbo,S10_D10 hbo,S10_D12 hbo,S11_D9 hbo,S11_D11 hbo,S11_D12 hbo,S11_D13 hbo,S12_D10 hbo,S12_D12 hbo,S12_D14 hbo,S13_D6 hbo,S13_D11 hbo,S13_D13 hbo,S13_D15 hbo,S14_D12 hbo,S14_D13 hbo,S14_D14 hbo,S14_D16 hbo,S15_D13 hbo,S15_D15 hbo,S15_D16 hbo,S16_D14 hbo,S16_D16 hbo
S1_D1 hbo,0.0,0.0,0.0,0.0,0.0,0.0,0.0,0.0,0.0,0.0,0.0,0.0,0.0,0.0,0.0,0.0,0.0,0.0,0.0,0.0,0.0,0.0,0.0,0.0,0.0,0.0,0.0,0.0,0.0,0.0,0.0,0.0,0.0,0.0,0.0,0.0,0.0,0.0,0.0,0.0,0.0,0.0,0.0,0.0,0.0,0.0,0.0,0.0,0.0,0.0,0.0,0.0
S1_D3 hbo,0.0,0.04736842105263158,0.0,0.0,0.0,0.05,0.05,0.0,0.0,0.0,0.0,0.05,0.0,0.05,0.04473684210526316,0.05,0.0,0.0,0.0,0.0,0.0,0.018421052631578946,0.0,0.05,0.05,0.031578947368421054,0.05,0.0,0.0,0.0,0.0,0.05,0.05,0.0,0.05,0.02894736842105263,0.05,0.05,0.0,0.04736842105263158,0.0,0.05,0.0,0.0,0.04473684210526316,0.0,0.0,0.0,0.0,0.03684210526315789,0.0,0.0
S2_D1 hbo,0.0,0.0,0.0,0.0,0.0,0.0,0.0,0.0,0.0,0.0,0.0,0.0,0.0,0.0,0.0,0.0,0.0,0.0,0.0,0.0,0.0,0.0,0.0,0.0,0.0,0.0,0.0,0.0,0.0,0.0,0.0,0.0,0.0,0.0,0.0,0.0,0.0,0.0,0.0,0.0,0.0,0.0,0.0,0.0,0.0,0.0,0.0,0.0,0.0,0.0,0.0,0.0
S2_D2 hbo,0.0,0.0,0.0,0.0,0.0,0.0,0.0,0.0,0.0,0.0,0.0,0.0,0.0,0.0,0.0,0.0,0.0,0.0,0.0,0.0,0.0,0.0,0.0,0.0,0.0,0.0,0.0,0.0,0.0,0.0,0.0,0.0,0.0,0.0,0.0,0.0,0.0,0.0,0.0,0.0,0.0,0.0,0.0,0.0,0.0,0.0,0.0,0.0,0.0,0.0,0.0,0.0
S2_D4 hbo,0.0,0.0,0.0,0.0,0.0,0.0,0.0,0.0,0.0,0.0,0.0,0.0,0.0,0.0,0.0,0.0,0.0,0.0,0.0,0.0,0.0,0.0,0.0,0.0,0.0,0.0,0.0,0.0,0.0,0.0,0.0,0.0,0.0,0.0,0.0,0.0,0.0,0.0,0.0,0.0,0.0,0.0,0.0,0.0,0.0,0.0,0.0,0.0,0.0,0.0,0.0,0.0
S3_D1 hbo,0.0,0.03877551020408163,0.0,0.0,0.0,0.05918367346938776,0.05102040816326531,0.0,0.0,0.0,0.0,0.04693877551020408,0.0,0.061224489795918366,0.04285714285714286,0.05918367346938776,0.0,0.0,0.0,0.0,0.0,0.014285714285714285,0.0,0.061224489795918366,0.04897959183673469,0.02857142857142857,0.04897959183673469,0.0,0.0,0.0,0.0,0.061224489795918366,0.05918367346938776,0.0,0.053061224489795916,0.02857142857142857,0.04285714285714286,0.04285714285714286,0.0,0.04285714285714286,0.0,0.044897959183673466,0.0,0.0,0.03469387755102041,0.0,0.0,0.0,0.0,0.02857142857142857,0.0,0.0
S3_D3 hbo,0.0,0.039337474120082816,0.0,0.0,0.0,0.055900621118012424,0.053830227743271224,0.0,0.0,0.0,0.0,0.049689440993788817,0.0,0.055900621118012424,0.043478260869565216,0.055900621118012424,0.0,0.0,0.0,0.0,0.0,0.014492753623188406,0.0,0.055900621118012424,0.051759834368530024,0.028985507246376812,0.051759834368530024,0.0,0.0,0.0,0.0,0.055900621118012424,0.055900621118012424,0.0,0.055900621118012424,0.031055900621118012,0.043478260869565216,0.043478260869565216,0.0,0.045548654244306416,0.0,0.047619047619047616,0.0,0.0,0.035196687370600416,0.0,0.0,0.0,0.0,0.028985507246376812,0.0,0.0
S3_D4 hbo,0.0,0.0,0.0,0.0,0.0,0.0,0.0,0.0,0.0,0.0,0.0,0.0,0.0,0.0,0.0,0.0,0.0,0.0,0.0,0.0,0.0,0.0,0.0,0.0,0.0,0.0,0.0,0.0,0.0,0.0,0.0,0.0,0.0,0.0,0.0,0.0,0.0,0.0,0.0,0.0,0.0,0.0,0.0,0.0,0.0,0.0,0.0,0.0,0.0,0.0,0.0,0.0
S3_D5 hbo,0.0,0.0,0.0,0.0,0.0,0.0,0.0,0.0,0.0,0.0,0.0,0.0,0.0,0.0,0.0,0.0,0.0,0.0,0.0,0.0,0.0,0.0,0.0,0.0,0.0,0.0,0.0,0.0,0.0,0.0,0.0,0.0,0.0,0.0,0.0,0.0,0.0,0.0,0.0,0.0,0.0,0.0,0.0,0.0,0.0,0.0,0.0,0.0,0.0,0.0,0.0,0.0
S4_D2 hbo,0.0,0.0,0.0,0.0,0.0,0.0,0.0,0.0,0.0,0.0,0.0,0.0,0.0,0.0,0.0,0.0,0.0,0.0,0.0,0.0,0.0,0.0,0.0,0.0,0.0,0.0,0.0,0.0,0.0,0.0,0.0,0.0,0.0,0.0,0.0,0.0,0.0,0.0,0.0,0.0,0.0,0.0,0.0,0.0,0.0,0.0,0.0,0.0,0.0,0.0,0.0,0.0
S4_D4 hbo,0.0,0.0,0.0,0.0,0.0,0.0,0.0,0.0,0.0,0.0,0.0,0.0,0.0,0.0,0.0,0.0,0.0,0.0,0.0,0.0,0.0,0.0,0.0,0.0,0.0,0.0,0.0,0.0,0.0,0.0,0.0,0.0,0.0,0.0,0.0,0.0,0.0,0.0,0.0,0.0,0.0,0.0,0.0,0.0,0.0,0.0,0.0,0.0,0.0,0.0,0.0,0.0
S4_D6 hbo,0.0,0.03807615230460922,0.0,0.0,0.0,0.050100200400801605,0.052104208416833664,0.0,0.0,0.0,0.0,0.056112224448897796,0.0,0.05811623246492986,0.03807615230460922,0.050100200400801605,0.0,0.0,0.0,0.0,0.0,0.014028056112224449,0.0,0.05811623246492986,0.05410821643286573,0.028056112224448898,0.05811623246492986,0.0,0.0,0.0,0.0,0.056112224448897796,0.050100200400801605,0.0,0.05811623246492986,0.036072144288577156,0.04208416833667335,0.04208416833667335,0.0,0.052104208416833664,0.0,0.04609218436873747,0.0,0.0,0.03406813627254509,0.0,0.0,0.0,0.0,0.028056112224448898,0.0,0.0
S4_D11 hbo,0.0,0.0,0.0,0.0,0.0,0.0,0.0,0.0,0.0,0.0,0.0,0.0,0.0,0.0,0.0,0.0,0.0,0.0,0.0,0.0,0.0,0.0,0.0,0.0,0.0,0.0,0.0,0.0,0.0,0.0,0.0,0.0,0.0,0.0,0.0,0.0,0.0,0.0,0.0,0.0,0.0,0.0,0.0,0.0,0.0,0.0,0.0,0.0,0.0,0.0,0.0,0.0
S5_D3 hbo,0.0,0.03512014787430684,0.0,0.0,0.0,0.05545286506469501,0.04990757855822551,0.0,0.0,0.0,0.0,0.051756007393715345,0.0,0.06839186691312385,0.038817005545286505,0.05545286506469501,0.0,0.0,0.0,0.0,0.0,0.012939001848428836,0.0,0.06469500924214418,0.04990757855822551,0.025878003696857672,0.053604436229205174,0.0,0.0,0.0,0.0,0.066543438077634,0.05545286506469501,0.0,0.05730129390018484,0.033271719038817,0.038817005545286505,0.038817005545286505,0.0,0.04805914972273567,0.0,0.04251386321626617,0.0,0.0,0.031423290203327174,0.0,0.0,0.0,0.0,0.025878003696857672,0.0,0.0
S5_D5 hbo,0.0,0.040983606557377046,0.0,0.0,0.0,0.05737704918032787,0.05191256830601093,0.0,0.0,0.0,0.0,0.04644808743169399,0.0,0.05737704918032787,0.0546448087431694,0.05737704918032787,0.0,0.0,0.0,0.0,0.0,0.01912568306010929,0.0,0.05737704918032787,0.04918032786885246,0.02459016393442623,0.04918032786885246,0.0,0.0,0.0,0.0,0.05737704918032787,0.05737704918032787,0.0,0.0546448087431694,0.02185792349726776,0.04371584699453552,0.04644808743169399,0.0,0.040983606557377046,0.0,0.04371584699453552,0.0,0.0,0.03825136612021858,0.0,0.0,0.0,0.0,0.030054644808743168,0.0,0.0
S5_D7 hbo,0.0,0.03877551020408163,0.0,0.0,0.0,0.05918367346938776,0.05102040816326531,0.0,0.0,0.0,0.0,0.04693877551020408,0.0,0.061224489795918366,0.04285714285714286,0.05918367346938776,0.0,0.0,0.0,0.0,0.0,0.014285714285714285,0.0,0.061224489795918366,0.04897959183673469,0.02857142857142857,0.04897959183673469,0.0,0.0,0.0,0.0,0.061224489795918366,0.05918367346938776,0.0,0.053061224489795916,0.02857142857142857,0.04285714285714286,0.04285714285714286,0.0,0.04285714285714286,0.0,0.044897959183673466,0.0,0.0,0.03469387755102041,0.0,0.0,0.0,0.0,0.02857142857142857,0.0,0.0
S6_D4 hbo,0.0,0.0,0.0,0.0,0.0,0.0,0.0,0.0,0.0,0.0,0.0,0.0,0.0,0.0,0.0,0.0,0.0,0.0,0.0,0.0,0.0,0.0,0.0,0.0,0.0,0.0,0.0,0.0,0.0,0.0,0.0,0.0,0.0,0.0,0.0,0.0,0.0,0.0,0.0,0.0,0.0,0.0,0.0,0.0,0.0,0.0,0.0,0.0,0.0,0.0,0.0,0.0
S6_D5 hbo,0.0,0.0,0.0,0.0,0.0,0.0,0.0,0.0,0.0,0.0,0.0,0.0,0.0,0.0,0.0,0.0,0.0,0.0,0.0,0.0,0.0,0.0,0.0,0.0,0.0,0.0,0.0,0.0,0.0,0.0,0.0,0.0,0.0,0.0,0.0,0.0,0.0,0.0,0.0,0.0,0.0,0.0,0.0,0.0,0.0,0.0,0.0,0.0,0.0,0.0,0.0,0.0
S6_D6 hbo,0.0,0.0,0.0,0.0,0.0,0.0,0.0,0.0,0.0,0.0,0.0,0.0,0.0,0.0,0.0,0.0,0.0,0.0,0.0,0.0,0.0,0.0,0.0,0.0,0.0,0.0,0.0,0.0,0.0,0.0,0.0,0.0,0.0,0.0,0.0,0.0,0.0,0.0,0.0,0.0,0.0,0.0,0.0,0.0,0.0,0.0,0.0,0.0,0.0,0.0,0.0,0.0
S6_D8 hbo,0.0,0.0,0.0,0.0,0.0,0.0,0.0,0.0,0.0,0.0,0.0,0.0,0.0,0.0,0.0,0.0,0.0,0.0,0.0,0.0,0.0,0.0,0.0,0.0,0.0,0.0,0.0,0.0,0.0,0.0,0.0,0.0,0.0,0.0,0.0,0.0,0.0,0.0,0.0,0.0,0.0,0.0,0.0,0.0,0.0,0.0,0.0,0.0,0.0,0.0,0.0,0.0
S7_D5 hbo,0.0,0.0,0.0,0.0,0.0,0.0,0.0,0.0,0.0,0.0,0.0,0.0,0.0,0.0,0.0,0.0,0.0,0.0,0.0,0.0,0.0,0.0,0.0,0.0,0.0,0.0,0.0,0.0,0.0,0.0,0.0,0.0,0.0,0.0,0.0,0.0,0.0,0.0,0.0,0.0,0.0,0.0,0.0,0.0,0.0,0.0,0.0,0.0,0.0,0.0,0.0,0.0
S7_D7 hbo,0.0,0.04666666666666667,0.0,0.0,0.0,0.04666666666666667,0.04666666666666667,0.0,0.0,0.0,0.0,0.04666666666666667,0.0,0.04666666666666667,0.04666666666666667,0.04666666666666667,0.0,0.0,0.0,0.0,0.0,0.04,0.0,0.04666666666666667,0.04666666666666667,0.04,0.04666666666666667,0.0,0.0,0.0,0.0,0.04666666666666667,0.04666666666666667,0.0,0.04666666666666667,0.03333333333333333,0.04666666666666667,0.04666666666666667,0.0,0.04666666666666667,0.0,0.04666666666666667,0.0,0.0,0.04666666666666667,0.0,0.0,0.0,0.0,0.04666666666666667,0.0,0.0
S7_D8 hbo,0.0,0.0,0.0,0.0,0.0,0.0,0.0,0.0,0.0,0.0,0.0,0.0,0.0,0.0,0.0,0.0,0.0,0.0,0.0,0.0,0.0,0.0,0.0,0.0,0.0,0.0,0.0,0.0,0.0,0.0,0.0,0.0,0.0,0.0,0.0,0.0,0.0,0.0,0.0,0.0,0.0,0.0,0.0,0.0,0.0,0.0,0.0,0.0,0.0,0.0,0.0,0.0
S8_D6 hbo,0.0,0.03486238532110092,0.0,0.0,0.0,0.05504587155963303,0.04954128440366973,0.0,0.0,0.0,0.0,0.05321100917431193,0.0,0.06788990825688074,0.03853211009174312,0.05504587155963303,0.0,0.0,0.0,0.0,0.0,0.012844036697247707,0.0,0.06972477064220184,0.04954128440366973,0.025688073394495414,0.05504587155963303,0.0,0.0,0.0,0.0,0.06422018348623854,0.05504587155963303,0.0,0.05688073394495413,0.03302752293577982,0.03853211009174312,0.03853211009174312,0.0,0.047706422018348627,0.0,0.04220183486238532,0.0,0.0,0.031192660550458717,0.0,0.0,0.0,0.0,0.025688073394495414,0.0,0.0
S8_D8 hbo,0.0,0.03917525773195876,0.0,0.0,0.0,0.05360824742268041,0.05567010309278351,0.0,0.0,0.0,0.0,0.05154639175257732,0.0,0.05567010309278351,0.041237113402061855,0.05360824742268041,0.0,0.0,0.0,0.0,0.0,0.01443298969072165,0.0,0.05567010309278351,0.05360824742268041,0.0288659793814433,0.05360824742268041,0.0,0.0,0.0,0.0,0.05567010309278351,0.05360824742268041,0.0,0.05567010309278351,0.032989690721649485,0.04329896907216495,0.04329896907216495,0.0,0.04742268041237113,0.0,0.04742268041237113,0.0,0.0,0.03505154639175258,0.0,0.0,0.0,0.0,0.0288659793814433,0.0,0.0
S8_D15 hbo,0.0,0.04778156996587031,0.0,0.0,0.0,0.04778156996587031,0.04778156996587031,0.0,0.0,0.0,0.0,0.04778156996587031,0.0,0.04778156996587031,0.03754266211604096,0.04778156996587031,0.0,0.0,0.0,0.0,0.0,0.023890784982935155,0.0,0.04778156996587031,0.04778156996587031,0.04436860068259386,0.04778156996587031,0.0,0.0,0.0,0.0,0.04778156996587031,0.04778156996587031,0.0,0.04778156996587031,0.040955631399317405,0.04778156996587031,0.04778156996587031,0.0,0.04778156996587031,0.0,0.04778156996587031,0.0,0.0,0.04436860068259386,0.0,0.0,0.0,0.0,0.04436860068259386,0.0,0.0
S9_D2 hbo,0.0,0.03740157480314961,0.0,0.0,0.0,0.051181102362204724,0.0531496062992126,0.0,0.0,0.0,0.0,0.05511811023622047,0.0,0.05905511811023622,0.03937007874015748,0.051181102362204724,0.0,0.0,0.0,0.0,0.0,0.013779527559055118,0.0,0.05905511811023622,0.0531496062992126,0.027559055118110236,0.05708661417322835,0.0,0.0,0.0,0.0,0.05708661417322835,0.051181102362204724,0.0,0.05905511811023622,0.03543307086614173,0.04133858267716536,0.04133858267716536,0.0,0.051181102362204724,0.0,0.045275590551181105,0.0,0.0,0.03346456692913386,0.0,0.0,0.0,0.0,0.027559055118110236,0.0,0.0
S9_D9 hbo,0.0,0.0,0.0,0.0,0.0,0.0,0.0,0.0,0.0,0.0,0.0,0.0,0.0,0.0,0.0,0.0,0.0,0.0,0.0,0.0,0.0,0.0,0.0,0.0,0.0,0.0,0.0,0.0,0.0,0.0,0.0,0.0,0.0,0.0,0.0,0.0,0.0,0.0,0.0,0.0,0.0,0.0,0.0,0.0,0.0,0.0,0.0,0.0,0.0,0.0,0.0,0.0
S9_D11 hbo,0.0,0.0,0.0,0.0,0.0,0.0,0.0,0.0,0.0,0.0,0.0,0.0,0.0,0.0,0.0,0.0,0.0,0.0,0.0,0.0,0.0,0.0,0.0,0.0,0.0,0.0,0.0,0.0,0.0,0.0,0.0,0.0,0.0,0.0,0.0,0.0,0.0,0.0,0.0,0.0,0.0,0.0,0.0,0.0,0.0,0.0,0.0,0.0,0.0,0.0,0.0,0.0
S10_D9 hbo,0.0,0.0,0.0,0.0,0.0,0.0,0.0,0.0,0.0,0.0,0.0,0.0,0.0,0.0,0.0,0.0,0.0,0.0,0.0,0.0,0.0,0.0,0.0,0.0,0.0,0.0,0.0,0.0,0.0,0.0,0.0,0.0,0.0,0.0,0.0,0.0,0.0,0.0,0.0,0.0,0.0,0.0,0.0,0.0,0.0,0.0,0.0,0.0,0.0,0.0,0.0,0.0
S10_D10 hbo,0.0,0.0,0.0,0.0,0.0,0.0,0.0,0.0,0.0,0.0,0.0,0.0,0.0,0.0,0.0,0.0,0.0,0.0,0.0,0.0,0.0,0.0,0.0,0.0,0.0,0.0,0.0,0.0,0.0,0.0,0.0,0.0,0.0,0.0,0.0,0.0,0.0,0.0,0.0,0.0,0.0,0.0,0.0,0.0,0.0,0.0,0.0,0.0,0.0,0.0,0.0,0.0
S10_D12 hbo,0.0,0.036053130929791274,0.0,0.0,0.0,0.056925996204933584,0.051233396584440226,0.0,0.0,0.0,0.0,0.04933586337760911,0.0,0.06641366223908918,0.03984819734345351,0.056925996204933584,0.0,0.0,0.0,0.0,0.0,0.013282732447817837,0.0,0.06261859582542695,0.051233396584440226,0.026565464895635674,0.051233396584440226,0.0,0.0,0.0,0.0,0.06641366223908918,0.056925996204933584,0.0,0.05502846299810247,0.03225806451612903,0.03984819734345351,0.03984819734345351,0.0,0.04554079696394687,0.0,0.04364326375711575,0.0,0.0,0.03225806451612903,0.0,0.0,0.0,0.0,0.026565464895635674,0.0,0.0
S11_D9 hbo,0.0,0.03877551020408163,0.0,0.0,0.0,0.05918367346938776,0.05102040816326531,0.0,0.0,0.0,0.0,0.04693877551020408,0.0,0.061224489795918366,0.04285714285714286,0.05918367346938776,0.0,0.0,0.0,0.0,0.0,0.014285714285714285,0.0,0.061224489795918366,0.04897959183673469,0.02857142857142857,0.04897959183673469,0.0,0.0,0.0,0.0,0.061224489795918366,0.05918367346938776,0.0,0.053061224489795916,0.02857142857142857,0.04285714285714286,0.04285714285714286,0.0,0.04285714285714286,0.0,0.044897959183673466,0.0,0.0,0.03469387755102041,0.0,0.0,0.0,0.0,0.02857142857142857,0.0,0.0
S11_D11 hbo,0.0,0.0,0.0,0.0,0.0,0.0,0.0,0.0,0.0,0.0,0.0,0.0,0.0,0.0,0.0,0.0,0.0,0.0,0.0,0.0,0.0,0.0,0.0,0.0,0.0,0.0,0.0,0.0,0.0,0.0,0.0,0.0,0.0,0.0,0.0,0.0,0.0,0.0,0.0,0.0,0.0,0.0,0.0,0.0,0.0,0.0,0.0,0.0,0.0,0.0,0.0,0.0
S11_D12 hbo,0.0,0.03682170542635659,0.0,0.0,0.0,0.05426356589147287,0.05232558139534884,0.0,0.0,0.0,0.0,0.05232558139534884,0.0,0.060077519379844964,0.040697674418604654,0.05426356589147287,0.0,0.0,0.0,0.0,0.0,0.013565891472868217,0.0,0.060077519379844964,0.05232558139534884,0.027131782945736434,0.05426356589147287,0.0,0.0,0.0,0.0,0.060077519379844964,0.05426356589147287,0.0,0.05813953488372093,0.03488372093023256,0.040697674418604654,0.040697674418604654,0.0,0.04844961240310078,0.0,0.044573643410852716,0.0,0.0,0.03294573643410853,0.0,0.0,0.0,0.0,0.027131782945736434,0.0,0.0
S11_D13 hbo,0.0,0.03857566765578635,0.0,0.0,0.0,0.04747774480712166,0.050445103857566766,0.0,0.0,0.0,0.0,0.05341246290801187,0.0,0.05341246290801187,0.02967359050445104,0.04747774480712166,0.0,0.0,0.0,0.0,0.0,0.020771513353115726,0.0,0.05341246290801187,0.05341246290801187,0.04154302670623145,0.05341246290801187,0.0,0.0,0.0,0.0,0.05341246290801187,0.04747774480712166,0.0,0.05341246290801187,0.050445103857566766,0.04154302670623145,0.03857566765578635,0.0,0.05341246290801187,0.0,0.04747774480712166,0.0,0.0,0.03560830860534125,0.0,0.0,0.0,0.0,0.03560830860534125,0.0,0.0
S12_D10 hbo,0.0,0.046228710462287104,0.0,0.0,0.0,0.051094890510948905,0.051094890510948905,0.0,0.0,0.0,0.0,0.051094890510948905,0.0,0.051094890510948905,0.043795620437956206,0.051094890510948905,0.0,0.0,0.0,0.0,0.0,0.0170316301703163,0.0,0.051094890510948905,0.051094890510948905,0.031630170316301706,0.051094890510948905,0.0,0.0,0.0,0.0,0.051094890510948905,0.051094890510948905,0.0,0.051094890510948905,0.029197080291970802,0.04866180048661801,0.051094890510948905,0.0,0.046228710462287104,0.0,0.04866180048661801,0.0,0.0,0.0413625304136253,0.0,0.0,0.0,0.0,0.0340632603406326,0.0,0.0
S12_D12 hbo,0.0,0.04455445544554455,0.0,0.0,0.0,0.05198019801980198,0.05198019801980198,0.0,0.0,0.0,0.0,0.04950495049504951,0.0,0.05198019801980198,0.04702970297029703,0.05198019801980198,0.0,0.0,0.0,0.0,0.0,0.017326732673267328,0.0,0.05198019801980198,0.05198019801980198,0.0297029702970297,0.05198019801980198,0.0,0.0,0.0,0.0,0.05198019801980198,0.05198019801980198,0.0,0.05198019801980198,0.027227722772277228,0.04702970297029703,0.04950495049504951,0.0,0.04455445544554455,0.0,0.04702970297029703,0.0,0.0,0.04207920792079208,0.0,0.0,0.0,0.0,0.034653465346534656,0.0,0.0
S12_D14 hbo,0.0,0.0,0.0,0.0,0.0,0.0,0.0,0.0,0.0,0.0,0.0,0.0,0.0,0.0,0.0,0.0,0.0,0.0,0.0,0.0,0.0,0.0,0.0,0.0,0.0,0.0,0.0,0.0,0.0,0.0,0.0,0.0,0.0,0.0,0.0,0.0,0.0,0.0,0.0,0.0,0.0,0.0,0.0,0.0,0.0,0.0,0.0,0.0,0.0,0.0,0.0,0.0
S13_D6 hbo,0.0,0.04051172707889126,0.0,0.0,0.0,0.04904051172707889,0.0511727078891258,0.0,0.0,0.0,0.0,0.05543710021321962,0.0,0.05543710021321962,0.03624733475479744,0.04904051172707889,0.0,0.0,0.0,0.0,0.0,0.014925373134328358,0.0,0.05543710021321962,0.053304904051172705,0.029850746268656716,0.05543710021321962,0.0,0.0,0.0,0.0,0.05543710021321962,0.04904051172707889,0.0,0.05543710021321962,0.03837953091684435,0.04477611940298507,0.042643923240938165,0.0,0.053304904051172705,0.0,0.04904051172707889,0.0,0.0,0.03624733475479744,0.0,0.0,0.0,0.0,0.029850746268656716,0.0,0.0
S13_D11 hbo,0.0,0.0,0.0,0.0,0.0,0.0,0.0,0.0,0.0,0.0,0.0,0.0,0.0,0.0,0.0,0.0,0.0,0.0,0.0,0.0,0.0,0.0,0.0,0.0,0.0,0.0,0.0,0.0,0.0,0.0,0.0,0.0,0.0,0.0,0.0,0.0,0.0,0.0,0.0,0.0,0.0,0.0,0.0,0.0,0.0,0.0,0.0,0.0,0.0,0.0,0.0,0.0
S13_D13 hbo,0.0,0.04308390022675737,0.0,0.0,0.0,0.05215419501133787,0.05215419501133787,0.0,0.0,0.0,0.0,0.05215419501133787,0.0,0.05215419501133787,0.04081632653061224,0.05215419501133787,0.0,0.0,0.0,0.0,0.0,0.015873015873015872,0.0,0.05215419501133787,0.05215419501133787,0.031746031746031744,0.05215419501133787,0.0,0.0,0.0,0.0,0.05215419501133787,0.05215419501133787,0.0,0.05215419501133787,0.031746031746031744,0.047619047619047616,0.047619047619047616,0.0,0.047619047619047616,0.0,0.049886621315192746,0.0,0.0,0.03854875283446712,0.0,0.0,0.0,0.0,0.031746031746031744,0.0,0.0
S13_D15 hbo,0.0,0.0,0.0,0.0,0.0,0.0,0.0,0.0,0.0,0.0,0.0,0.0,0.0,0.0,0.0,0.0,0.0,0.0,0.0,0.0,0.0,0.0,0.0,0.0,0.0,0.0,0.0,0.0,0.0,0.0,0.0,0.0,0.0,0.0,0.0,0.0,0.0,0.0,0.0,0.0,0.0,0.0,0.0,0.0,0.0,0.0,0.0,0.0,0.0,0.0,0.0,0.0
S14_D12 hbo,0.0,0.0,0.0,0.0,0.0,0.0,0.0,0.0,0.0,0.0,0.0,0.0,0.0,0.0,0.0,0.0,0.0,0.0,0.0,0.0,0.0,0.0,0.0,0.0,0.0,0.0,0.0,0.0,0.0,0.0,0.0,0.0,0.0,0.0,0.0,0.0,0.0,0.0,0.0,0.0,0.0,0.0,0.0,0.0,0.0,0.0,0.0,0.0,0.0,0.0,0.0,0.0
S14_D13 hbo,0.0,0.04927536231884058,0.0,0.0,0.0,0.04927536231884058,0.04927536231884058,0.0,0.0,0.0,0.0,0.04927536231884058,0.0,0.04927536231884058,0.0463768115942029,0.04927536231884058,0.0,0.0,0.0,0.0,0.0,0.020289855072463767,0.0,0.04927536231884058,0.04927536231884058,0.03188405797101449,0.04927536231884058,0.0,0.0,0.0,0.0,0.04927536231884058,0.04927536231884058,0.0,0.04927536231884058,0.028985507246376812,0.04927536231884058,0.04927536231884058,0.0,0.04927536231884058,0.0,0.04927536231884058,0.0,0.0,0.0463768115942029,0.0,0.0,0.0,0.0,0.03768115942028986,0.0,0.0
S14_D14 hbo,0.0,0.0,0.0,0.0,0.0,0.0,0.0,0.0,0.0,0.0,0.0,0.0,0.0,0.0,0.0,0.0,0.0,0.0,0.0,0.0,0.0,0.0,0.0,0.0,0.0,0.0,0.0,0.0,0.0,0.0,0.0,0.0,0.0,0.0,0.0,0.0,0.0,0.0,0.0,0.0,0.0,0.0,0.0,0.0,0.0,0.0,0.0,0.0,0.0,0.0,0.0,0.0
S14_D16 hbo,0.0,0.0,0.0,0.0,0.0,0.0,0.0,0.0,0.0,0.0,0.0,0.0,0.0,0.0,0.0,0.0,0.0,0.0,0.0,0.0,0.0,0.0,0.0,0.0,0.0,0.0,0.0,0.0,0.0,0.0,0.0,0.0,0.0,0.0,0.0,0.0,0.0,0.0,0.0,0.0,0.0,0.0,0.0,0.0,0.0,0.0,0.0,0.0,0.0,0.0,0.0,0.0
S15_D13 hbo,0.0,0.0,0.0,0.0,0.0,0.0,0.0,0.0,0.0,0.0,0.0,0.0,0.0,0.0,0.0,0.0,0.0,0.0,0.0,0.0,0.0,0.0,0.0,0.0,0.0,0.0,0.0,0.0,0.0,0.0,0.0,0.0,0.0,0.0,0.0,0.0,0.0,0.0,0.0,0.0,0.0,0.0,0.0,0.0,0.0,0.0,0.0,0.0,0.0,0.0,0.0,0.0
S15_D15 hbo,0.0,0.0,0.0,0.0,0.0,0.0,0.0,0.0,0.0,0.0,0.0,0.0,0.0,0.0,0.0,0.0,0.0,0.0,0.0,0.0,0.0,0.0,0.0,0.0,0.0,0.0,0.0,0.0,0.0,0.0,0.0,0.0,0.0,0.0,0.0,0.0,0.0,0.0,0.0,0.0,0.0,0.0,0.0,0.0,0.0,0.0,0.0,0.0,0.0,0.0,0.0,0.0
S15_D16 hbo,0.0,0.04794520547945205,0.0,0.0,0.0,0.04794520547945205,0.04794520547945205,0.0,0.0,0.0,0.0,0.04794520547945205,0.0,0.04794520547945205,0.04452054794520548,0.04794520547945205,0.0,0.0,0.0,0.0,0.0,0.023972602739726026,0.0,0.04794520547945205,0.04794520547945205,0.03767123287671233,0.04794520547945205,0.0,0.0,0.0,0.0,0.04794520547945205,0.04794520547945205,0.0,0.04794520547945205,0.03424657534246575,0.04794520547945205,0.04794520547945205,0.0,0.04794520547945205,0.0,0.04794520547945205,0.0,0.0,0.04794520547945205,0.0,0.0,0.0,0.0,0.04452054794520548,0.0,0.0
S16_D14 hbo,0.0,0.0,0.0,0.0,0.0,0.0,0.0,0.0,0.0,0.0,0.0,0.0,0.0,0.0,0.0,0.0,0.0,0.0,0.0,0.0,0.0,0.0,0.0,0.0,0.0,0.0,0.0,0.0,0.0,0.0,0.0,0.0,0.0,0.0,0.0,0.0,0.0,0.0,0.0,0.0,0.0,0.0,0.0,0.0,0.0,0.0,0.0,0.0,0.0,0.0,0.0,0.0
S16_D16 hbo,0.0,0.0,0.0,0.0,0.0,0.0,0.0,0.0,0.0,0.0,0.0,0.0,0.0,0.0,0.0,0.0,0.0,0.0,0.0,0.0,0.0,0.0,0.0,0.0,0.0,0.0,0.0,0.0,0.0,0.0,0.0,0.0,0.0,0.0,0.0,0.0,0.0,0.0,0.0,0.0,0.0,0.0,0.0,0.0,0.0,0.0,0.0,0.0,0.0,0.0,0.0,0.0
