,S1_D1 hbo,S1_D3 hbo,S2_D1 hbo,S2_D2 hbo,S2_D4 hbo,S3_D1 hbo,S3_D3 hbo,S3_D4 hbo,S3_D5 hbo,S4_D2 hbo,S4_D4 hbo,S4_D6 hbo,S4_D11 hbo,S5_D3 hbo,S5_D5 hbo,S5_D7 hbo,S6_D4 hbo,S6_D5 hbo,S6_D6 hbo,S6_D8 hbo,S7_D5 hbo,S7_D7 hbo,S7_D8 hbo,S8_D6 hbo,S8_D8 hbo,S8_D15 hbo,S9_D2 hbo,S9_D9 hbo,S9_D11 hbo,S10_D9 hbo,S10_D10 hbo,S10_D12 hbo,S11_D9 hbo,S11_D11 hbo,S11_D12 hbo,S11_D13 hbo,S12_D10 hbo,S12_D12 hbo,S12_D14 hbo,S13_D6 hbo,S13_D11 hbo,S13_D13 hbo,S13_D15 hbo,S14_D12 hbo,S14_D13 hbo,S14_D14 hbo,S14_D16 hbo,S15_D13 hbo,S15_D15 hbo,S15_D16 hbo,S16_D14 hbo,S16_D16 hbo
S1_D1 hbo,0.0,0.0,0.0,0.0,0.0,0.0,0.0,0.0,0.0,0.0,0.0,0.0,0.0,0.0,0.0,0.0,0.0,0.0,0.0,0.0,0.0,0.0,0.0,0.0,0.0,0.0,0.0,0.0,0.0,0.0,0.0,0.0,0.0,0.0,0.0,0.0,0.0,0.0,0.0,0.0,0.0,0.0,0.0,0.0,0.0,0.0,0.0,0.0,0.0,0.0,0.0,0.0
S1_D3 hbo,0.0,0.0,0.0,0.0,0.0,0.0,0.0,0.0,0.0,0.0,0.0,0.0,0.0,0.0,0.0,0.0,0.0,0.0,0.0,0.0,0.0,0.0,0.0,0.0,0.0,0.0,0.0,0.0,0.0,0.0,0.0,0.0,0.0,0.0,0.0,0.0,0.0,0.0,0.0,0.0,0.0,0.0,0.0,0.0,0.0,0.0,0.0,0.0,0.0,0.0,0.0,0.0
S2_D1 hbo,0.0,0.0,0.0,0.037037037037037035,0.037037037037037035,0.0,0.0,0.0,0.037037037037037035,0.0,0.0,0.0,0.0,0.037037037037037035,0.037037037037037035,0.037037037037037035,0.037037037037037035,0.037037037037037035,0.037037037037037035,0.037037037037037035,0.037037037037037035,0.037037037037037035,0.037037037037037035,0.037037037037037035,0.037037037037037035,0.037037037037037035,0.037037037037037035,0.0,0.0,0.037037037037037035,0.0,0.037037037037037035,0.037037037037037035,0.0,0.0,0.0,0.0,0.0,0.0,0.0,0.0,0.037037037037037035,0.037037037037037035,0.0,0.037037037037037035,0.037037037037037035,0.037037037037037035,0.037037037037037035,0.037037037037037035,0.0,0.0,0.0
S2_D2 hbo,0.0,0.0,0.0,0.03,0.04,0.0,0.0,0.0,0.04,0.0,0.0,0.0,0.0,0.04,0.04,0.04,0.04,0.04,0.02,0.04,0.04,0.02,0.04,0.04,0.04,0.04,0.04,0.0,0.0,0.04,0.0,0.04,0.04,0.0,0.0,0.0,0.0,0.0,0.0,0.0,0.0,0.04,0.04,0.0,0.04,0.04,0.01,0.04,0.04,0.0,0.0,0.0
S2_D4 hbo,0.0,0.0,0.0,0.020689655172413793,0.041379310344827586,0.0,0.0,0.0,0.027586206896551724,0.0,0.0,0.0,0.0,0.034482758620689655,0.034482758620689655,0.041379310344827586,0.027586206896551724,0.04827586206896552,0.013793103448275862,0.04827586206896552,0.034482758620689655,0.013793103448275862,0.04827586206896552,0.041379310344827586,0.034482758620689655,0.04827586206896552,0.04827586206896552,0.0,0.0,0.034482758620689655,0.0,0.034482758620689655,0.034482758620689655,0.0,0.0,0.0,0.0,0.0,0.0,0.0,0.0,0.04827586206896552,0.04827586206896552,0.0,0.04827586206896552,0.041379310344827586,0.006896551724137931,0.04827586206896552,0.04827586206896552,0.0,0.0,0.0
S3_D1 hbo,0.0,0.0,0.0,0.0,0.0,0.0,0.0,0.0,0.0,0.0,0.0,0.0,0.0,0.0,0.0,0.0,0.0,0.0,0.0,0.0,0.0,0.0,0.0,0.0,0.0,0.0,0.0,0.0,0.0,0.0,0.0,0.0,0.0,0.0,0.0,0.0,0.0,0.0,0.0,0.0,0.0,0.0,0.0,0.0,0.0,0.0,0.0,0.0,0.0,0.0,0.0,0.0
S3_D3 hbo,0.0,0.0,0.0,0.0,0.0,0.0,0.0,0.0,0.0,0.0,0.0,0.0,0.0,0.0,0.0,0.0,0.0,0.0,0.0,0.0,0.0,0.0,0.0,0.0,0.0,0.0,0.0,0.0,0.0,0.0,0.0,0.0,0.0,0.0,0.0,0.0,0.0,0.0,0.0,0.0,0.0,0.0,0.0,0.0,0.0,0.0,0.0,0.0,0.0,0.0,0.0,0.0
S3_D4 hbo,0.0,0.0,0.0,0.0,0.0,0.0,0.0,0.0,0.0,0.0,0.0,0.0,0.0,0.0,0.0,0.0,0.0,0.0,0.0,0.0,0.0,0.0,0.0,0.0,0.0,0.0,0.0,0.0,0.0,0.0,0.0,0.0,0.0,0.0,0.0,0.0,0.0,0.0,0.0,0.0,0.0,0.0,0.0,0.0,0.0,0.0,0.0,0.0,0.0,0.0,0.0,0.0
S3_D5 hbo,0.0,0.0,0.0,0.024793388429752067,0.04132231404958678,0.0,0.0,0.0,0.03305785123966942,0.0,0.0,0.0,0.0,0.04132231404958678,0.04132231404958678,0.04132231404958678,0.03305785123966942,0.04132231404958678,0.01652892561983471,0.04132231404958678,0.04132231404958678,0.01652892561983471,0.04132231404958678,0.04132231404958678,0.04132231404958678,0.04132231404958678,0.04132231404958678,0.0,0.0,0.04132231404958678,0.0,0.04132231404958678,0.04132231404958678,0.0,0.0,0.0,0.0,0.0,0.0,0.0,0.0,0.04132231404958678,0.04132231404958678,0.0,0.04132231404958678,0.04132231404958678,0.008264462809917356,0.04132231404958678,0.04132231404958678,0.0,0.0,0.0
S4_D2 hbo,0.0,0.0,0.0,0.0,0.0,0.0,0.0,0.0,0.0,0.0,0.0,0.0,0.0,0.0,0.0,0.0,0.0,0.0,0.0,0.0,0.0,0.0,0.0,0.0,0.0,0.0,0.0,0.0,0.0,0.0,0.0,0.0,0.0,0.0,0.0,0.0,0.0,0.0,0.0,0.0,0.0,0.0,0.0,0.0,0.0,0.0,0.0,0.0,0.0,0.0,0.0,0.0
S4_D4 hbo,0.0,0.0,0.0,0.0,0.0,0.0,0.0,0.0,0.0,0.0,0.0,0.0,0.0,0.0,0.0,0.0,0.0,0.0,0.0,0.0,0.0,0.0,0.0,0.0,0.0,0.0,0.0,0.0,0.0,0.0,0.0,0.0,0.0,0.0,0.0,0.0,0.0,0.0,0.0,0.0,0.0,0.0,0.0,0.0,0.0,0.0,0.0,0.0,0.0,0.0,0.0,0.0
S4_D6 hbo,0.0,0.0,0.0,0.0,0.0,0.0,0.0,0.0,0.0,0.0,0.0,0.0,0.0,0.0,0.0,0.0,0.0,0.0,0.0,0.0,0.0,0.0,0.0,0.0,0.0,0.0,0.0,0.0,0.0,0.0,0.0,0.0,0.0,0.0,0.0,0.0,0.0,0.0,0.0,0.0,0.0,0.0,0.0,0.0,0.0,0.0,0.0,0.0,0.0,0.0,0.0,0.0
S4_D11 hbo,0.0,0.0,0.0,0.0,0.0,0.0,0.0,0.0,0.0,0.0,0.0,0.0,0.0,0.0,0.0,0.0,0.0,0.0,0.0,0.0,0.0,0.0,0.0,0.0,0.0,0.0,0.0,0.0,0.0,0.0,0.0,0.0,0.0,0.0,0.0,0.0,0.0,0.0,0.0,0.0,0.0,0.0,0.0,0.0,0.0,0.0,0.0,0.0,0.0,0.0,0.0,0.0
S5_D3 hbo,0.0,0.0,0.0,0.022222222222222223,0.044444444444444446,0.0,0.0,0.0,0.02962962962962963,0.0,0.0,0.0,0.0,0.037037037037037035,0.037037037037037035,0.044444444444444446,0.02962962962962963,0.044444444444444446,0.014814814814814815,0.044444444444444446,0.037037037037037035,0.014814814814814815,0.044444444444444446,0.044444444444444446,0.037037037037037035,0.044444444444444446,0.044444444444444446,0.0,0.0,0.037037037037037035,0.0,0.037037037037037035,0.037037037037037035,0.0,0.0,0.0,0.0,0.0,0.0,0.0,0.0,0.044444444444444446,0.044444444444444446,0.0,0.044444444444444446,0.044444444444444446,0.007407407407407408,0.044444444444444446,0.044444444444444446,0.0,0.0,0.0
S5_D5 hbo,0.0,0.0,0.0,0.022222222222222223,0.044444444444444446,0.0,0.0,0.0,0.02962962962962963,0.0,0.0,0.0,0.0,0.037037037037037035,0.037037037037037035,0.044444444444444446,0.02962962962962963,0.044444444444444446,0.014814814814814815,0.044444444444444446,0.037037037037037035,0.014814814814814815,0.044444444444444446,0.044444444444444446,0.037037037037037035,0.044444444444444446,0.044444444444444446,0.0,0.0,0.037037037037037035,0.0,0.037037037037037035,0.037037037037037035,0.0,0.0,0.0,0.0,0.0,0.0,0.0,0.0,0.044444444444444446,0.044444444444444446,0.0,0.044444444444444446,0.044444444444444446,0.007407407407407408,0.044444444444444446,0.044444444444444446,0.0,0.0,0.0
S5_D7 hbo,0.0,0.0,0.0,0.020689655172413793,0.041379310344827586,0.0,0.0,0.0,0.027586206896551724,0.0,0.0,0.0,0.0,0.034482758620689655,0.034482758620689655,0.041379310344827586,0.027586206896551724,0.04827586206896552,0.013793103448275862,0.04827586206896552,0.034482758620689655,0.013793103448275862,0.04827586206896552,0.041379310344827586,0.034482758620689655,0.04827586206896552,0.04827586206896552,0.0,0.0,0.034482758620689655,0.0,0.034482758620689655,0.034482758620689655,0.0,0.0,0.0,0.0,0.0,0.0,0.0,0.0,0.04827586206896552,0.04827586206896552,0.0,0.04827586206896552,0.041379310344827586,0.006896551724137931,0.04827586206896552,0.04827586206896552,0.0,0.0,0.0
S6_D4 hbo,0.0,0.0,0.0,0.024793388429752067,0.04132231404958678,0.0,0.0,0.0,0.03305785123966942,0.0,0.0,0.0,0.0,0.04132231404958678,0.04132231404958678,0.04132231404958678,0.03305785123966942,0.04132231404958678,0.01652892561983471,0.04132231404958678,0.04132231404958678,0.01652892561983471,0.04132231404958678,0.04132231404958678,0.04132231404958678,0.04132231404958678,0.04132231404958678,0.0,0.0,0.04132231404958678,0.0,0.04132231404958678,0.04132231404958678,0.0,0.0,0.0,0.0,0.0,0.0,0.0,0.0,0.04132231404958678,0.04132231404958678,0.0,0.04132231404958678,0.04132231404958678,0.008264462809917356,0.04132231404958678,0.04132231404958678,0.0,0.0,0.0
S6_D5 hbo,0.0,0.0,0.0,0.01875,0.0375,0.0,0.0,0.0,0.025,0.0,0.0,0.0,0.0,0.03125,0.03125,0.0375,0.025,0.05625,0.0125,0.04375,0.03125,0.0125,0.04375,0.0375,0.03125,0.0625,0.04375,0.0,0.0,0.03125,0.0,0.03125,0.03125,0.0,0.0,0.0,0.0,0.0,0.0,0.0,0.0,0.0625,0.0625,0.0,0.05,0.0375,0.00625,0.0625,0.04375,0.0,0.0,0.0
S6_D6 hbo,0.0,0.0,0.0,0.03896103896103896,0.03896103896103896,0.0,0.0,0.0,0.03896103896103896,0.0,0.0,0.0,0.0,0.03896103896103896,0.03896103896103896,0.03896103896103896,0.03896103896103896,0.03896103896103896,0.025974025974025976,0.03896103896103896,0.03896103896103896,0.025974025974025976,0.03896103896103896,0.03896103896103896,0.03896103896103896,0.03896103896103896,0.03896103896103896,0.0,0.0,0.03896103896103896,0.0,0.03896103896103896,0.03896103896103896,0.0,0.0,0.0,0.0,0.0,0.0,0.0,0.0,0.03896103896103896,0.03896103896103896,0.0,0.03896103896103896,0.03896103896103896,0.012987012987012988,0.03896103896103896,0.03896103896103896,0.0,0.0,0.0
S6_D8 hbo,0.0,0.0,0.0,0.019867549668874173,0.039735099337748346,0.0,0.0,0.0,0.026490066225165563,0.0,0.0,0.0,0.0,0.033112582781456956,0.033112582781456956,0.039735099337748346,0.026490066225165563,0.052980132450331126,0.013245033112582781,0.046357615894039736,0.033112582781456956,0.013245033112582781,0.046357615894039736,0.039735099337748346,0.033112582781456956,0.052980132450331126,0.046357615894039736,0.0,0.0,0.033112582781456956,0.0,0.033112582781456956,0.033112582781456956,0.0,0.0,0.0,0.0,0.0,0.0,0.0,0.0,0.052980132450331126,0.052980132450331126,0.0,0.052980132450331126,0.039735099337748346,0.006622516556291391,0.052980132450331126,0.046357615894039736,0.0,0.0,0.0
S7_D5 hbo,0.0,0.0,0.0,0.022222222222222223,0.044444444444444446,0.0,0.0,0.0,0.02962962962962963,0.0,0.0,0.0,0.0,0.037037037037037035,0.037037037037037035,0.044444444444444446,0.02962962962962963,0.044444444444444446,0.014814814814814815,0.044444444444444446,0.037037037037037035,0.014814814814814815,0.044444444444444446,0.044444444444444446,0.037037037037037035,0.044444444444444446,0.044444444444444446,0.0,0.0,0.037037037037037035,0.0,0.037037037037037035,0.037037037037037035,0.0,0.0,0.0,0.0,0.0,0.0,0.0,0.0,0.044444444444444446,0.044444444444444446,0.0,0.044444444444444446,0.044444444444444446,0.007407407407407408,0.044444444444444446,0.044444444444444446,0.0,0.0,0.0
S7_D7 hbo,0.0,0.0,0.0,0.03896103896103896,0.03896103896103896,0.0,0.0,0.0,0.03896103896103896,0.0,0.0,0.0,0.0,0.03896103896103896,0.03896103896103896,0.03896103896103896,0.03896103896103896,0.03896103896103896,0.025974025974025976,0.03896103896103896,0.03896103896103896,0.025974025974025976,0.03896103896103896,0.03896103896103896,0.03896103896103896,0.03896103896103896,0.03896103896103896,0.0,0.0,0.03896103896103896,0.0,0.03896103896103896,0.03896103896103896,0.0,0.0,0.0,0.0,0.0,0.0,0.0,0.0,0.03896103896103896,0.03896103896103896,0.0,0.03896103896103896,0.03896103896103896,0.012987012987012988,0.03896103896103896,0.03896103896103896,0.0,0.0,0.0
S7_D8 hbo,0.0,0.0,0.0,0.019867549668874173,0.039735099337748346,0.0,0.0,0.0,0.026490066225165563,0.0,0.0,0.0,0.0,0.033112582781456956,0.033112582781456956,0.039735099337748346,0.026490066225165563,0.052980132450331126,0.013245033112582781,0.046357615894039736,0.033112582781456956,0.013245033112582781,0.046357615894039736,0.039735099337748346,0.033112582781456956,0.052980132450331126,0.046357615894039736,0.0,0.0,0.033112582781456956,0.0,0.033112582781456956,0.033112582781456956,0.0,0.0,0.0,0.0,0.0,0.0,0.0,0.0,0.052980132450331126,0.052980132450331126,0.0,0.052980132450331126,0.039735099337748346,0.006622516556291391,0.052980132450331126,0.046357615894039736,0.0,0.0,0.0
S8_D6 hbo,0.0,0.0,0.0,0.020689655172413793,0.041379310344827586,0.0,0.0,0.0,0.027586206896551724,0.0,0.0,0.0,0.0,0.034482758620689655,0.034482758620689655,0.041379310344827586,0.027586206896551724,0.04827586206896552,0.013793103448275862,0.04827586206896552,0.034482758620689655,0.013793103448275862,0.04827586206896552,0.041379310344827586,0.034482758620689655,0.04827586206896552,0.04827586206896552,0.0,0.0,0.034482758620689655,0.0,0.034482758620689655,0.034482758620689655,0.0,0.0,0.0,0.0,0.0,0.0,0.0,0.0,0.04827586206896552,0.04827586206896552,0.0,0.04827586206896552,0.041379310344827586,0.006896551724137931,0.04827586206896552,0.04827586206896552,0.0,0.0,0.0
S8_D8 hbo,0.0,0.0,0.0,0.022222222222222223,0.044444444444444446,0.0,0.0,0.0,0.02962962962962963,0.0,0.0,0.0,0.0,0.037037037037037035,0.037037037037037035,0.044444444444444446,0.02962962962962963,0.044444444444444446,0.014814814814814815,0.044444444444444446,0.037037037037037035,0.014814814814814815,0.044444444444444446,0.044444444444444446,0.037037037037037035,0.044444444444444446,0.044444444444444446,0.0,0.0,0.037037037037037035,0.0,0.037037037037037035,0.037037037037037035,0.0,0.0,0.0,0.0,0.0,0.0,0.0,0.0,0.044444444444444446,0.044444444444444446,0.0,0.044444444444444446,0.044444444444444446,0.007407407407407408,0.044444444444444446,0.044444444444444446,0.0,0.0,0.0
S8_D15 hbo,0.0,0.0,0.0,0.01818181818181818,0.03636363636363636,0.0,0.0,0.0,0.024242424242424242,0.0,0.0,0.0,0.0,0.030303030303030304,0.030303030303030304,0.03636363636363636,0.024242424242424242,0.05454545454545454,0.012121212121212121,0.04242424242424243,0.030303030303030304,0.012121212121212121,0.04242424242424243,0.03636363636363636,0.030303030303030304,0.06666666666666667,0.04242424242424243,0.0,0.0,0.030303030303030304,0.0,0.030303030303030304,0.030303030303030304,0.0,0.0,0.0,0.0,0.0,0.0,0.0,0.0,0.07272727272727272,0.06060606060606061,0.0,0.048484848484848485,0.03636363636363636,0.006060606060606061,0.07272727272727272,0.04242424242424243,0.0,0.0,0.0
S9_D2 hbo,0.0,0.0,0.0,0.019867549668874173,0.039735099337748346,0.0,0.0,0.0,0.026490066225165563,0.0,0.0,0.0,0.0,0.033112582781456956,0.033112582781456956,0.039735099337748346,0.026490066225165563,0.052980132450331126,0.013245033112582781,0.046357615894039736,0.033112582781456956,0.013245033112582781,0.046357615894039736,0.039735099337748346,0.033112582781456956,0.052980132450331126,0.046357615894039736,0.0,0.0,0.033112582781456956,0.0,0.033112582781456956,0.033112582781456956,0.0,0.0,0.0,0.0,0.0,0.0,0.0,0.0,0.052980132450331126,0.052980132450331126,0.0,0.052980132450331126,0.039735099337748346,0.006622516556291391,0.052980132450331126,0.046357615894039736,0.0,0.0,0.0
S9_D9 hbo,0.0,0.0,0.0,0.0,0.0,0.0,0.0,0.0,0.0,0.0,0.0,0.0,0.0,0.0,0.0,0.0,0.0,0.0,0.0,0.0,0.0,0.0,0.0,0.0,0.0,0.0,0.0,0.0,0.0,0.0,0.0,0.0,0.0,0.0,0.0,0.0,0.0,0.0,0.0,0.0,0.0,0.0,0.0,0.0,0.0,0.0,0.0,0.0,0.0,0.0,0.0,0.0
S9_D11 hbo,0.0,0.0,0.0,0.0,0.0,0.0,0.0,0.0,0.0,0.0,0.0,0.0,0.0,0.0,0.0,0.0,0.0,0.0,0.0,0.0,0.0,0.0,0.0,0.0,0.0,0.0,0.0,0.0,0.0,0.0,0.0,0.0,0.0,0.0,0.0,0.0,0.0,0.0,0.0,0.0,0.0,0.0,0.0,0.0,0.0,0.0,0.0,0.0,0.0,0.0,0.0,0.0
S10_D9 hbo,0.0,0.0,0.0,0.022222222222222223,0.044444444444444446,0.0,0.0,0.0,0.02962962962962963,0.0,0.0,0.0,0.0,0.037037037037037035,0.037037037037037035,0.044444444444444446,0.02962962962962963,0.044444444444444446,0.014814814814814815,0.044444444444444446,0.037037037037037035,0.014814814814814815,0.044444444444444446,0.044444444444444446,0.037037037037037035,0.044444444444444446,0.044444444444444446,0.0,0.0,0.037037037037037035,0.0,0.037037037037037035,0.037037037037037035,0.0,0.0,0.0,0.0,0.0,0.0,0.0,0.0,0.044444444444444446,0.044444444444444446,0.0,0.044444444444444446,0.044444444444444446,0.007407407407407408,0.044444444444444446,0.044444444444444446,0.0,0.0,0.0
S10_D10 hbo,0.0,0.0,0.0,0.0,0.0,0.0,0.0,0.0,0.0,0.0,0.0,0.0,0.0,0.0,0.0,0.0,0.0,0.0,0.0,0.0,0.0,0.0,0.0,0.0,0.0,0.0,0.0,0.0,0.0,0.0,0.0,0.0,0.0,0.0,0.0,0.0,0.0,0.0,0.0,0.0,0.0,0.0,0.0,0.0,0.0,0.0,0.0,0.0,0.0,0.0,0.0,0.0
S10_D12 hbo,0.0,0.0,0.0,0.022222222222222223,0.044444444444444446,0.0,0.0,0.0,0.02962962962962963,0.0,0.0,0.0,0.0,0.037037037037037035,0.037037037037037035,0.044444444444444446,0.02962962962962963,0.044444444444444446,0.014814814814814815,0.044444444444444446,0.037037037037037035,0.014814814814814815,0.044444444444444446,0.044444444444444446,0.037037037037037035,0.044444444444444446,0.044444444444444446,0.0,0.0,0.037037037037037035,0.0,0.037037037037037035,0.037037037037037035,0.0,0.0,0.0,0.0,0.0,0.0,0.0,0.0,0.044444444444444446,0.044444444444444446,0.0,0.044444444444444446,0.044444444444444446,0.007407407407407408,0.044444444444444446,0.044444444444444446,0.0,0.0,0.0
S11_D9 hbo,0.0,0.0,0.0,0.022222222222222223,0.044444444444444446,0.0,0.0,0.0,0.02962962962962963,0.0,0.0,0.0,0.0,0.037037037037037035,0.037037037037037035,0.044444444444444446,0.02962962962962963,0.044444444444444446,0.014814814814814815,0.044444444444444446,0.037037037037037035,0.014814814814814815,0.044444444444444446,0.044444444444444446,0.037037037037037035,0.044444444444444446,0.044444444444444446,0.0,0.0,0.037037037037037035,0.0,0.037037037037037035,0.037037037037037035,0.0,0.0,0.0,0.0,0.0,0.0,0.0,0.0,0.044444444444444446,0.044444444444444446,0.0,0.044444444444444446,0.044444444444444446,0.007407407407407408,0.044444444444444446,0.044444444444444446,0.0,0.0,0.0
S11_D11 hbo,0.0,0.0,0.0,0.0,0.0,0.0,0.0,0.0,0.0,0.0,0.0,0.0,0.0,0.0,0.0,0.0,0.0,0.0,0.0,0.0,0.0,0.0,0.0,0.0,0.0,0.0,0.0,0.0,0.0,0.0,0.0,0.0,0.0,0.0,0.0,0.0,0.0,0.0,0.0,0.0,0.0,0.0,0.0,0.0,0.0,0.0,0.0,0.0,0.0,0.0,0.0,0.0
S11_D12 hbo,0.0,0.0,0.0,0.0,0.0,0.0,0.0,0.0,0.0,0.0,0.0,0.0,0.0,0.0,0.0,0.0,0.0,0.0,0.0,0.0,0.0,0.0,0.0,0.0,0.0,0.0,0.0,0.0,0.0,0.0,0.0,0.0,0.0,0.0,0.0,0.0,0.0,0.0,0.0,0.0,0.0,0.0,0.0,0.0,0.0,0.0,0.0,0.0,0.0,0.0,0.0,0.0
S11_D13 hbo,0.0,0.0,0.0,0.0,0.0,0.0,0.0,0.0,0.0,0.0,0.0,0.0,0.0,0.0,0.0,0.0,0.0,0.0,0.0,0.0,0.0,0.0,0.0,0.0,0.0,0.0,0.0,0.0,0.0,0.0,0.0,0.0,0.0,0.0,0.0,0.0,0.0,0.0,0.0,0.0,0.0,0.0,0.0,0.0,0.0,0.0,0.0,0.0,0.0,0.0,0.0,0.0
S12_D10 hbo,0.0,0.0,0.0,0.0,0.0,0.0,0.0,0.0,0.0,0.0,0.0,0.0,0.0,0.0,0.0,0.0,0.0,0.0,0.0,0.0,0.0,0.0,0.0,0.0,0.0,0.0,0.0,0.0,0.0,0.0,0.0,0.0,0.0,0.0,0.0,0.0,0.0,0.0,0.0,0.0,0.0,0.0,0.0,0.0,0.0,0.0,0.0,0.0,0.0,0.0,0.0,0.0
S12_D12 hbo,0.0,0.0,0.0,0.0,0.0,0.0,0.0,0.0,0.0,0.0,0.0,0.0,0.0,0.0,0.0,0.0,0.0,0.0,0.0,0.0,0.0,0.0,0.0,0.0,0.0,0.0,0.0,0.0,0.0,0.0,0.0,0.0,0.0,0.0,0.0,0.0,0.0,0.0,0.0,0.0,0.0,0.0,0.0,0.0,0.0,0.0,0.0,0.0,0.0,0.0,0.0,0.0
S12_D14 hbo,0.0,0.0,0.0,0.0,0.0,0.0,0.0,0.0,0.0,0.0,0.0,0.0,0.0,0.0,0.0,0.0,0.0,0.0,0.0,0.0,0.0,0.0,0.0,0.0,0.0,0.0,0.0,0.0,0.0,0.0,0.0,0.0,0.0,0.0,0.0,0.0,0.0,0.0,0.0,0.0,0.0,0.0,0.0,0.0,0.0,0.0,0.0,0.0,0.0,0.0,0.0,0.0
S13_D6 hbo,0.0,0.0,0.0,0.0,0.0,0.0,0.0,0.0,0.0,0.0,0.0,0.0,0.0,0.0,0.0,0.0,0.0,0.0,0.0,0.0,0.0,0.0,0.0,0.0,0.0,0.0,0.0,0.0,0.0,0.0,0.0,0.0,0.0,0.0,0.0,0.0,0.0,0.0,0.0,0.0,0.0,0.0,0.0,0.0,0.0,0.0,0.0,0.0,0.0,0.0,0.0,0.0
S13_D11 hbo,0.0,0.0,0.0,0.0,0.0,0.0,0.0,0.0,0.0,0.0,0.0,0.0,0.0,0.0,0.0,0.0,0.0,0.0,0.0,0.0,0.0,0.0,0.0,0.0,0.0,0.0,0.0,0.0,0.0,0.0,0.0,0.0,0.0,0.0,0.0,0.0,0.0,0.0,0.0,0.0,0.0,0.0,0.0,0.0,0.0,0.0,0.0,0.0,0.0,0.0,0.0,0.0
S13_D13 hbo,0.0,0.0,0.0,0.017857142857142856,0.03571428571428571,0.0,0.0,0.0,0.023809523809523808,0.0,0.0,0.0,0.0,0.02976190476190476,0.02976190476190476,0.03571428571428571,0.023809523809523808,0.05357142857142857,0.011904761904761904,0.041666666666666664,0.02976190476190476,0.011904761904761904,0.041666666666666664,0.03571428571428571,0.02976190476190476,0.06547619047619048,0.041666666666666664,0.0,0.0,0.02976190476190476,0.0,0.02976190476190476,0.02976190476190476,0.0,0.0,0.0,0.0,0.0,0.0,0.0,0.0,0.07738095238095238,0.05952380952380952,0.0,0.047619047619047616,0.03571428571428571,0.005952380952380952,0.08333333333333333,0.041666666666666664,0.0,0.0,0.0
S13_D15 hbo,0.0,0.0,0.0,0.018404907975460124,0.03680981595092025,0.0,0.0,0.0,0.024539877300613498,0.0,0.0,0.0,0.0,0.03067484662576687,0.03067484662576687,0.03680981595092025,0.024539877300613498,0.05521472392638037,0.012269938650306749,0.04294478527607362,0.03067484662576687,0.012269938650306749,0.04294478527607362,0.03680981595092025,0.03067484662576687,0.06748466257668712,0.04294478527607362,0.0,0.0,0.03067484662576687,0.0,0.03067484662576687,0.03067484662576687,0.0,0.0,0.0,0.0,0.0,0.0,0.0,0.0,0.06748466257668712,0.06134969325153374,0.0,0.049079754601226995,0.03680981595092025,0.006134969325153374,0.06748466257668712,0.04294478527607362,0.0,0.0,0.0
S14_D12 hbo,0.0,0.0,0.0,0.0,0.0,0.0,0.0,0.0,0.0,0.0,0.0,0.0,0.0,0.0,0.0,0.0,0.0,0.0,0.0,0.0,0.0,0.0,0.0,0.0,0.0,0.0,0.0,0.0,0.0,0.0,0.0,0.0,0.0,0.0,0.0,0.0,0.0,0.0,0.0,0.0,0.0,0.0,0.0,0.0,0.0,0.0,0.0,0.0,0.0,0.0,0.0,0.0
S14_D13 hbo,0.0,0.0,0.0,0.019230769230769232,0.038461538461538464,0.0,0.0,0.0,0.02564102564102564,0.0,0.0,0.0,0.0,0.03205128205128205,0.03205128205128205,0.038461538461538464,0.02564102564102564,0.057692307692307696,0.01282051282051282,0.04487179487179487,0.03205128205128205,0.01282051282051282,0.04487179487179487,0.038461538461538464,0.03205128205128205,0.057692307692307696,0.04487179487179487,0.0,0.0,0.03205128205128205,0.0,0.03205128205128205,0.03205128205128205,0.0,0.0,0.0,0.0,0.0,0.0,0.0,0.0,0.057692307692307696,0.057692307692307696,0.0,0.05128205128205128,0.038461538461538464,0.00641025641025641,0.057692307692307696,0.04487179487179487,0.0,0.0,0.0
S14_D14 hbo,0.0,0.0,0.0,0.020689655172413793,0.041379310344827586,0.0,0.0,0.0,0.027586206896551724,0.0,0.0,0.0,0.0,0.034482758620689655,0.034482758620689655,0.041379310344827586,0.027586206896551724,0.04827586206896552,0.013793103448275862,0.04827586206896552,0.034482758620689655,0.013793103448275862,0.04827586206896552,0.041379310344827586,0.034482758620689655,0.04827586206896552,0.04827586206896552,0.0,0.0,0.034482758620689655,0.0,0.034482758620689655,0.034482758620689655,0.0,0.0,0.0,0.0,0.0,0.0,0.0,0.0,0.04827586206896552,0.04827586206896552,0.0,0.04827586206896552,0.041379310344827586,0.006896551724137931,0.04827586206896552,0.04827586206896552,0.0,0.0,0.0
S14_D16 hbo,0.0,0.0,0.0,0.03773584905660377,0.03773584905660377,0.0,0.0,0.0,0.03773584905660377,0.0,0.0,0.0,0.0,0.03773584905660377,0.03773584905660377,0.03773584905660377,0.03773584905660377,0.03773584905660377,0.03773584905660377,0.03773584905660377,0.03773584905660377,0.03773584905660377,0.03773584905660377,0.03773584905660377,0.03773584905660377,0.03773584905660377,0.03773584905660377,0.0,0.0,0.03773584905660377,0.0,0.03773584905660377,0.03773584905660377,0.0,0.0,0.0,0.0,0.0,0.0,0.0,0.0,0.03773584905660377,0.03773584905660377,0.0,0.03773584905660377,0.03773584905660377,0.018867924528301886,0.03773584905660377,0.03773584905660377,0.0,0.0,0.0
S15_D13 hbo,0.0,0.0,0.0,0.01775147928994083,0.03550295857988166,0.0,0.0,0.0,0.023668639053254437,0.0,0.0,0.0,0.0,0.029585798816568046,0.029585798816568046,0.03550295857988166,0.023668639053254437,0.05325443786982249,0.011834319526627219,0.04142011834319527,0.029585798816568046,0.011834319526627219,0.04142011834319527,0.03550295857988166,0.029585798816568046,0.0650887573964497,0.04142011834319527,0.0,0.0,0.029585798816568046,0.0,0.029585798816568046,0.029585798816568046,0.0,0.0,0.0,0.0,0.0,0.0,0.0,0.0,0.07692307692307693,0.05917159763313609,0.0,0.047337278106508875,0.03550295857988166,0.005917159763313609,0.08875739644970414,0.04142011834319527,0.0,0.0,0.0
S15_D15 hbo,0.0,0.0,0.0,0.019867549668874173,0.039735099337748346,0.0,0.0,0.0,0.026490066225165563,0.0,0.0,0.0,0.0,0.033112582781456956,0.033112582781456956,0.039735099337748346,0.026490066225165563,0.052980132450331126,0.013245033112582781,0.046357615894039736,0.033112582781456956,0.013245033112582781,0.046357615894039736,0.039735099337748346,0.033112582781456956,0.052980132450331126,0.046357615894039736,0.0,0.0,0.033112582781456956,0.0,0.033112582781456956,0.033112582781456956,0.0,0.0,0.0,0.0,0.0,0.0,0.0,0.0,0.052980132450331126,0.052980132450331126,0.0,0.052980132450331126,0.039735099337748346,0.006622516556291391,0.052980132450331126,0.046357615894039736,0.0,0.0,0.0
S15_D16 hbo,0.0,0.0,0.0,0.0,0.0,0.0,0.0,0.0,0.0,0.0,0.0,0.0,0.0,0.0,0.0,0.0,0.0,0.0,0.0,0.0,0.0,0.0,0.0,0.0,0.0,0.0,0.0,0.0,0.0,0.0,0.0,0.0,0.0,0.0,0.0,0.0,0.0,0.0,0.0,0.0,0.0,0.0,0.0,0.0,0.0,0.0,0.0,0.0,0.0,0.0,0.0,0.0
S16_D14 hbo,0.0,0.0,0.0,0.037037037037037035,0.037037037037037035,0.0,0.0,0.0,0.037037037037037035,0.0,0.0,0.0,0.0,0.037037037037037035,0.037037037037037035,0.037037037037037035,0.037037037037037035,0.037037037037037035,0.037037037037037035,0.037037037037037035,0.037037037037037035,0.037037037037037035,0.037037037037037035,0.037037037037037035,0.037037037037037035,0.037037037037037035,0.037037037037037035,0.0,0.0,0.037037037037037035,0.0,0.037037037037037035,0.037037037037037035,0.0,0.0,0.0,0.0,0.0,0.0,0.0,0.0,0.037037037037037035,0.037037037037037035,0.0,0.037037037037037035,0.037037037037037035,0.037037037037037035,0.037037037037037035,0.037037037037037035,0.0,0.0,0.0
S16_D16 hbo,0.0,0.0,0.0,0.0,0.0,0.0,0.0,0.0,0.0,0.0,0.0,0.0,0.0,0.0,0.0,0.0,0.0,0.0,0.0,0.0,0.0,0.0,0.0,0.0,0.0,0.0,0.0,0.0,0.0,0.0,0.0,0.0,0.0,0.0,0.0,0.0,0.0,0.0,0.0,0.0,0.0,0.0,0.0,0.0,0.0,0.0,0.0,0.0,0.0,0.0,0.0,0.0
