,S1_D1 hbo,S1_D3 hbo,S2_D1 hbo,S2_D2 hbo,S2_D4 hbo,S3_D1 hbo,S3_D3 hbo,S3_D4 hbo,S3_D5 hbo,S4_D2 hbo,S4_D4 hbo,S4_D6 hbo,S4_D11 hbo,S5_D3 hbo,S5_D5 hbo,S5_D7 hbo,S6_D4 hbo,S6_D5 hbo,S6_D6 hbo,S6_D8 hbo,S7_D5 hbo,S7_D7 hbo,S7_D8 hbo,S8_D6 hbo,S8_D8 hbo,S8_D15 hbo,S9_D2 hbo,S9_D9 hbo,S9_D11 hbo,S10_D9 hbo,S10_D10 hbo,S10_D12 hbo,S11_D9 hbo,S11_D11 hbo,S11_D12 hbo,S11_D13 hbo,S12_D10 hbo,S12_D12 hbo,S12_D14 hbo,S13_D6 hbo,S13_D11 hbo,S13_D13 hbo,S13_D15 hbo,S14_D12 hbo,S14_D13 hbo,S14_D14 hbo,S14_D16 hbo,S15_D13 hbo,S15_D15 hbo,S15_D16 hbo,S16_D14 hbo,S16_D16 hbo
S1_D1 hbo,0.10069444444444445,0.0,0.04513888888888889,0.006944444444444444,0.010416666666666666,0.034722222222222224,0.006944444444444444,0.020833333333333332,0.0,0.0,0.027777777777777776,0.017361111111111112,0.003472222222222222,0.017361111111111112,0.003472222222222222,0.03819444444444445,0.020833333333333332,0.0,0.017361111111111112,0.020833333333333332,0.027777777777777776,0.013888888888888888,0.020833333333333332,0.017361111111111112,0.017361111111111112,0.024305555555555556,0.013888888888888888,0.034722222222222224,0.020833333333333332,0.04513888888888889,0.013888888888888888,0.027777777777777776,0.017361111111111112,0.013888888888888888,0.027777777777777776,0.006944444444444444,0.027777777777777776,0.013888888888888888,0.06597222222222222,0.006944444444444444,0.013888888888888888,0.006944444444444444,0.024305555555555556,0.024305555555555556,0.0,0.024305555555555556,0.0,0.017361111111111112,0.006944444444444444,0.0,0.03125,0.0
S1_D3 hbo,0.0,0.34375,0.0,0.0,0.0,0.0,0.0,0.0,0.0,0.0,0.0,0.0,0.0,0.28125,0.21875,0.0,0.0,0.0,0.0,0.0,0.0,0.0,0.0,0.0,0.0,0.0,0.0,0.0,0.0,0.0,0.0,0.0,0.0,0.0,0.0,0.0,0.0,0.0,0.15625,0.0,0.0,0.0,0.0,0.0,0.0,0.0,0.0,0.0,0.0,0.0,0.0,0.0
S2_D1 hbo,0.041916167664670656,0.0,0.08383233532934131,0.014970059880239521,0.0,0.04491017964071856,0.020958083832335328,0.03293413173652695,0.0,0.005988023952095809,0.0,0.05688622754491018,0.005988023952095809,0.017964071856287425,0.0029940119760479044,0.02694610778443114,0.03293413173652695,0.0,0.014970059880239521,0.023952095808383235,0.03592814371257485,0.02694610778443114,0.03293413173652695,0.029940119760479042,0.03293413173652695,0.014970059880239521,0.011976047904191617,0.020958083832335328,0.017964071856287425,0.014970059880239521,0.008982035928143712,0.0,0.017964071856287425,0.020958083832335328,0.02694610778443114,0.023952095808383235,0.005988023952095809,0.0,0.03293413173652695,0.008982035928143712,0.014970059880239521,0.020958083832335328,0.017964071856287425,0.0,0.008982035928143712,0.017964071856287425,0.017964071856287425,0.02694610778443114,0.020958083832335328,0.008982035928143712,0.014970059880239521,0.014970059880239521
S2_D2 hbo,0.0081799591002045,0.0,0.012269938650306749,0.065439672801636,0.0081799591002045,0.012269938650306749,0.024539877300613498,0.044989775051124746,0.012269938650306749,0.016359918200409,0.0,0.012269938650306749,0.016359918200409,0.002044989775051125,0.0,0.010224948875255624,0.0408997955010225,0.014314928425357873,0.0,0.032719836400818,0.002044989775051125,0.018404907975460124,0.034764826175869123,0.00408997955010225,0.026584867075664622,0.028629856850715747,0.024539877300613498,0.018404907975460124,0.026584867075664622,0.014314928425357873,0.0,0.034764826175869123,0.014314928425357873,0.032719836400818,0.03680981595092025,0.026584867075664622,0.0,0.02044989775051125,0.010224948875255624,0.012269938650306749,0.014314928425357873,0.024539877300613498,0.028629856850715747,0.018404907975460124,0.028629856850715747,0.018404907975460124,0.03680981595092025,0.012269938650306749,0.0408997955010225,0.026584867075664622,0.0,0.03067484662576687
S2_D4 hbo,0.01056338028169014,0.0,0.0,0.02112676056338028,0.1267605633802817,0.007042253521126761,0.0,0.028169014084507043,0.0,0.0,0.0,0.0,0.0,0.04225352112676056,0.0,0.02112676056338028,0.03873239436619718,0.035211267605633804,0.01056338028169014,0.04225352112676056,0.0,0.0035211267605633804,0.02112676056338028,0.017605633802816902,0.02464788732394366,0.035211267605633804,0.0,0.0,0.045774647887323945,0.0035211267605633804,0.0,0.028169014084507043,0.0,0.014084507042253521,0.0528169014084507,0.0,0.0,0.014084507042253521,0.017605633802816902,0.0,0.0,0.007042253521126761,0.04225352112676056,0.014084507042253521,0.0035211267605633804,0.03873239436619718,0.05985915492957746,0.0035211267605633804,0.045774647887323945,0.04929577464788732,0.014084507042253521,0.05985915492957746
S3_D1 hbo,0.03015075376884422,0.0,0.04773869346733668,0.01507537688442211,0.0,0.06532663316582915,0.022613065326633167,0.035175879396984924,0.0,0.0,0.0,0.03015075376884422,0.0,0.01507537688442211,0.0,0.02512562814070352,0.035175879396984924,0.0,0.01507537688442211,0.01256281407035176,0.02512562814070352,0.035175879396984924,0.04020100502512563,0.020100502512562814,0.022613065326633167,0.01507537688442211,0.01256281407035176,0.02512562814070352,0.02512562814070352,0.01507537688442211,0.022613065326633167,0.0,0.017587939698492462,0.035175879396984924,0.04522613065326633,0.02763819095477387,0.01256281407035176,0.01256281407035176,0.035175879396984924,0.010050251256281407,0.01256281407035176,0.020100502512562814,0.017587939698492462,0.0,0.01507537688442211,0.01507537688442211,0.022613065326633167,0.020100502512562814,0.02512562814070352,0.01507537688442211,0.01507537688442211,0.017587939698492462
S3_D3 hbo,0.012195121951219513,0.0,0.024390243902439025,0.024390243902439025,0.0,0.02195121951219512,0.046341463414634146,0.04390243902439024,0.00975609756097561,0.0,0.0,0.024390243902439025,0.014634146341463415,0.0,0.0,0.01707317073170732,0.041463414634146344,0.007317073170731708,0.01707317073170732,0.014634146341463415,0.00975609756097561,0.01951219512195122,0.03414634146341464,0.007317073170731708,0.02195121951219512,0.024390243902439025,0.01707317073170732,0.03414634146341464,0.03414634146341464,0.024390243902439025,0.00975609756097561,0.014634146341463415,0.026829268292682926,0.03414634146341464,0.036585365853658534,0.026829268292682926,0.004878048780487805,0.014634146341463415,0.026829268292682926,0.012195121951219513,0.02195121951219512,0.03170731707317073,0.014634146341463415,0.014634146341463415,0.02195121951219512,0.02195121951219512,0.026829268292682926,0.00975609756097561,0.024390243902439025,0.01707317073170732,0.007317073170731708,0.03414634146341464
S3_D4 hbo,0.01288659793814433,0.0,0.01804123711340206,0.02577319587628866,0.007731958762886598,0.015463917525773196,0.020618556701030927,0.05798969072164949,0.005154639175257732,0.005154639175257732,0.0,0.010309278350515464,0.01804123711340206,0.01288659793814433,0.0,0.02577319587628866,0.045103092783505154,0.015463917525773196,0.010309278350515464,0.037371134020618556,0.007731958762886598,0.019329896907216496,0.03865979381443299,0.011597938144329897,0.02190721649484536,0.019329896907216496,0.01804123711340206,0.029639175257731958,0.02577319587628866,0.023195876288659795,0.0,0.01804123711340206,0.02577319587628866,0.029639175257731958,0.03608247422680412,0.020618556701030927,0.0,0.011597938144329897,0.014175257731958763,0.011597938144329897,0.01804123711340206,0.014175257731958763,0.03608247422680412,0.01804123711340206,0.020618556701030927,0.027061855670103094,0.024484536082474227,0.01288659793814433,0.03350515463917526,0.02577319587628866,0.01288659793814433,0.029639175257731958
S3_D5 hbo,0.0,0.0,0.0,0.04672897196261682,0.0,0.0,0.04672897196261682,0.056074766355140186,0.22429906542056074,0.08411214953271028,0.009345794392523364,0.0,0.0,0.0,0.0,0.037383177570093455,0.0,0.0,0.0,0.0,0.0,0.0,0.0,0.028037383177570093,0.0,0.0,0.0,0.04672897196261682,0.0,0.037383177570093455,0.08411214953271028,0.037383177570093455,0.06542056074766354,0.0,0.028037383177570093,0.0,0.0,0.0,0.0,0.0,0.056074766355140186,0.0,0.0,0.0,0.0,0.028037383177570093,0.0,0.0,0.0,0.0,0.028037383177570093,0.056074766355140186
S4_D2 hbo,0.0,0.0,0.0,0.0661764705882353,0.0,0.0,0.0,0.04411764705882353,0.0661764705882353,0.2426470588235294,0.007352941176470588,0.014705882352941176,0.03676470588235294,0.007352941176470588,0.0,0.022058823529411766,0.04411764705882353,0.03676470588235294,0.014705882352941176,0.058823529411764705,0.029411764705882353,0.0,0.04411764705882353,0.022058823529411766,0.03676470588235294,0.0,0.0,0.0,0.0,0.0,0.0,0.029411764705882353,0.0,0.03676470588235294,0.0,0.0,0.0,0.0,0.0,0.0,0.0,0.0,0.014705882352941176,0.007352941176470588,0.022058823529411766,0.0,0.0,0.029411764705882353,0.022058823529411766,0.04411764705882353,0.0,0.0
S4_D4 hbo,0.11320754716981132,0.0,0.0,0.0,0.0,0.0,0.0,0.0,0.0,0.018867924528301886,0.49056603773584906,0.0,0.05660377358490566,0.07547169811320754,0.018867924528301886,0.0,0.0,0.0,0.0,0.0,0.0,0.0,0.0,0.0,0.0,0.0,0.0,0.0,0.0,0.0,0.0,0.0,0.0,0.0,0.0,0.0,0.11320754716981132,0.0,0.0,0.0,0.0,0.0,0.0,0.0,0.0,0.0,0.0,0.0,0.0,0.0,0.05660377358490566,0.05660377358490566
S4_D6 hbo,0.024875621890547265,0.0,0.0845771144278607,0.01990049751243781,0.0,0.04975124378109453,0.029850746268656716,0.029850746268656716,0.0,0.01990049751243781,0.0,0.08955223880597014,0.014925373134328358,0.004975124378109453,0.0,0.014925373134328358,0.03482587064676617,0.0,0.01990049751243781,0.01990049751243781,0.03980099502487562,0.01990049751243781,0.03482587064676617,0.03482587064676617,0.05472636815920398,0.01990049751243781,0.004975124378109453,0.009950248756218905,0.024875621890547265,0.004975124378109453,0.014925373134328358,0.0,0.004975124378109453,0.029850746268656716,0.024875621890547265,0.01990049751243781,0.009950248756218905,0.0,0.029850746268656716,0.0,0.004975124378109453,0.029850746268656716,0.004975124378109453,0.0,0.009950248756218905,0.004975124378109453,0.024875621890547265,0.029850746268656716,0.014925373134328358,0.009950248756218905,0.004975124378109453,0.01990049751243781
S4_D11 hbo,0.00906344410876133,0.0,0.012084592145015106,0.02416918429003021,0.0,0.0,0.015105740181268883,0.045317220543806644,0.0,0.00906344410876133,0.00906344410876133,0.012084592145015106,0.07250755287009064,0.0030211480362537764,0.0,0.0030211480362537764,0.04229607250755287,0.01812688821752266,0.021148036253776436,0.045317220543806644,0.0,0.012084592145015106,0.03927492447129909,0.0,0.030211480362537766,0.015105740181268883,0.027190332326283987,0.01812688821752266,0.027190332326283987,0.01812688821752266,0.0,0.02416918429003021,0.01812688821752266,0.03927492447129909,0.02416918429003021,0.01812688821752266,0.00906344410876133,0.02416918429003021,0.015105740181268883,0.015105740181268883,0.01812688821752266,0.021148036253776436,0.03927492447129909,0.03625377643504532,0.03625377643504532,0.02416918429003021,0.01812688821752266,0.015105740181268883,0.030211480362537766,0.027190332326283987,0.0030211480362537764,0.015105740181268883
S5_D3 hbo,0.014619883040935672,0.023391812865497075,0.011695906432748537,0.008771929824561403,0.04093567251461988,0.011695906432748537,0.0,0.029239766081871343,0.0,0.008771929824561403,0.005847953216374269,0.0029239766081871343,0.0029239766081871343,0.0935672514619883,0.02046783625730994,0.049707602339181284,0.03216374269005848,0.02046783625730994,0.017543859649122806,0.029239766081871343,0.014619883040935672,0.011695906432748537,0.02046783625730994,0.014619883040935672,0.011695906432748537,0.02046783625730994,0.011695906432748537,0.011695906432748537,0.023391812865497075,0.014619883040935672,0.0,0.02046783625730994,0.014619883040935672,0.014619883040935672,0.04678362573099415,0.005847953216374269,0.0,0.014619883040935672,0.023391812865497075,0.005847953216374269,0.011695906432748537,0.0,0.038011695906432746,0.017543859649122806,0.0029239766081871343,0.049707602339181284,0.03508771929824561,0.008771929824561403,0.02631578947368421,0.02046783625730994,0.02631578947368421,0.038011695906432746
S5_D5 hbo,0.04,0.1,0.04,0.0,0.0,0.0,0.0,0.0,0.0,0.0,0.02,0.0,0.0,0.12,0.5,0.02,0.0,0.0,0.0,0.0,0.0,0.0,0.0,0.0,0.0,0.02,0.0,0.02,0.0,0.02,0.0,0.02,0.0,0.0,0.0,0.0,0.02,0.0,0.02,0.0,0.0,0.0,0.0,0.02,0.0,0.0,0.0,0.0,0.0,0.0,0.02,0.0
S5_D7 hbo,0.022321428571428572,0.0,0.017857142857142856,0.015625,0.013392857142857142,0.017857142857142856,0.011160714285714286,0.04241071428571429,0.004464285714285714,0.006696428571428571,0.0,0.008928571428571428,0.002232142857142857,0.029017857142857144,0.002232142857142857,0.078125,0.03125,0.013392857142857142,0.006696428571428571,0.026785714285714284,0.013392857142857142,0.017857142857142856,0.026785714285714284,0.013392857142857142,0.011160714285714286,0.03125,0.011160714285714286,0.049107142857142856,0.015625,0.033482142857142856,0.0,0.026785714285714284,0.024553571428571428,0.017857142857142856,0.03794642857142857,0.013392857142857142,0.022321428571428572,0.0,0.03125,0.006696428571428571,0.013392857142857142,0.006696428571428571,0.029017857142857144,0.017857142857142856,0.006696428571428571,0.03125,0.020089285714285716,0.011160714285714286,0.026785714285714284,0.017857142857142856,0.03571428571428571,0.029017857142857144
S6_D4 hbo,0.013480392156862746,0.0,0.01715686274509804,0.025735294117647058,0.011029411764705883,0.015931372549019607,0.01838235294117647,0.049019607843137254,0.0,0.004901960784313725,0.0,0.012254901960784314,0.01838235294117647,0.014705882352941176,0.0,0.01838235294117647,0.05392156862745098,0.020833333333333332,0.01715686274509804,0.03799019607843137,0.00980392156862745,0.015931372549019607,0.04044117647058824,0.00857843137254902,0.024509803921568627,0.025735294117647058,0.0196078431372549,0.01838235294117647,0.03553921568627451,0.01715686274509804,0.003676470588235294,0.020833333333333332,0.014705882352941176,0.031862745098039214,0.031862745098039214,0.01838235294117647,0.0024509803921568627,0.012254901960784314,0.01838235294117647,0.012254901960784314,0.015931372549019607,0.015931372549019607,0.03799019607843137,0.01838235294117647,0.020833333333333332,0.023284313725490197,0.028186274509803922,0.014705882352941176,0.03676470588235294,0.02696078431372549,0.006127450980392157,0.023284313725490197
S6_D5 hbo,0.0,0.0,0.0,0.026128266033254157,0.026128266033254157,0.0,0.011876484560570071,0.04275534441805225,0.0,0.014251781472684086,0.0,0.0,0.023752969121140142,0.0166270783847981,0.0,0.014251781472684086,0.052256532066508314,0.08788598574821853,0.004750593824228029,0.04513064133016627,0.0,0.009501187648456057,0.040380047505938245,0.007125890736342043,0.028503562945368172,0.0332541567695962,0.014251781472684086,0.007125890736342043,0.035629453681710214,0.007125890736342043,0.0,0.030878859857482184,0.011876484560570071,0.0332541567695962,0.030878859857482184,0.011876484560570071,0.0,0.014251781472684086,0.004750593824228029,0.014251781472684086,0.014251781472684086,0.011876484560570071,0.04513064133016627,0.0166270783847981,0.021377672209026127,0.023752969121140142,0.03800475059382423,0.007125890736342043,0.04513064133016627,0.04275534441805225,0.0,0.0332541567695962
S6_D6 hbo,0.026119402985074626,0.0,0.026119402985074626,0.0,0.014925373134328358,0.029850746268656716,0.026119402985074626,0.029850746268656716,0.0,0.0,0.0,0.018656716417910446,0.018656716417910446,0.026119402985074626,0.0,0.011194029850746268,0.05223880597014925,0.0,0.10074626865671642,0.022388059701492536,0.026119402985074626,0.007462686567164179,0.03731343283582089,0.007462686567164179,0.026119402985074626,0.011194029850746268,0.018656716417910446,0.018656716417910446,0.05223880597014925,0.018656716417910446,0.018656716417910446,0.0037313432835820895,0.007462686567164179,0.026119402985074626,0.029850746268656716,0.0,0.007462686567164179,0.014925373134328358,0.041044776119402986,0.0037313432835820895,0.007462686567164179,0.014925373134328358,0.026119402985074626,0.033582089552238806,0.014925373134328358,0.022388059701492536,0.014925373134328358,0.033582089552238806,0.007462686567164179,0.007462686567164179,0.022388059701492536,0.014925373134328358
S6_D8 hbo,0.015280135823429542,0.0,0.008488964346349746,0.027164685908319185,0.01697792869269949,0.006791171477079796,0.008488964346349746,0.05263157894736842,0.0,0.015280135823429542,0.0,0.006791171477079796,0.023769100169779286,0.015280135823429542,0.0,0.01697792869269949,0.04584040747028863,0.022071307300509338,0.011884550084889643,0.059422750424448216,0.015280135823429542,0.013582342954159592,0.04074702886247878,0.010186757215619695,0.035653650254668934,0.02037351443123939,0.02037351443123939,0.01697792869269949,0.027164685908319185,0.01867572156196944,0.0,0.023769100169779286,0.01867572156196944,0.030560271646859084,0.028862478777589132,0.013582342954159592,0.0,0.015280135823429542,0.01697792869269949,0.011884550084889643,0.01697792869269949,0.010186757215619695,0.044142614601018676,0.022071307300509338,0.02037351443123939,0.025466893039049237,0.023769100169779286,0.01867572156196944,0.03395585738539898,0.027164685908319185,0.006791171477079796,0.01867572156196944
S7_D5 hbo,0.04032258064516129,0.0,0.04032258064516129,0.004032258064516129,0.0,0.04032258064516129,0.016129032258064516,0.016129032258064516,0.0,0.024193548387096774,0.0,0.036290322580645164,0.0,0.020161290322580645,0.0,0.024193548387096774,0.024193548387096774,0.0,0.03225806451612903,0.028225806451612902,0.16532258064516128,0.016129032258064516,0.03225806451612903,0.03225806451612903,0.036290322580645164,0.008064516129032258,0.012096774193548387,0.016129032258064516,0.024193548387096774,0.016129032258064516,0.020161290322580645,0.0,0.020161290322580645,0.016129032258064516,0.024193548387096774,0.008064516129032258,0.008064516129032258,0.0,0.04032258064516129,0.008064516129032258,0.016129032258064516,0.020161290322580645,0.020161290322580645,0.0,0.0,0.020161290322580645,0.004032258064516129,0.04435483870967742,0.008064516129032258,0.0,0.016129032258064516,0.0
S7_D7 hbo,0.013761467889908258,0.0,0.027522935779816515,0.022935779816513763,0.0,0.03669724770642202,0.022935779816513763,0.04128440366972477,0.0,0.0,0.0,0.013761467889908258,0.009174311926605505,0.013761467889908258,0.0,0.022935779816513763,0.034403669724770644,0.0045871559633027525,0.0045871559633027525,0.020642201834862386,0.013761467889908258,0.045871559633027525,0.04357798165137615,0.016055045871559634,0.020642201834862386,0.02522935779816514,0.020642201834862386,0.034403669724770644,0.016055045871559634,0.020642201834862386,0.0,0.009174311926605505,0.034403669724770644,0.034403669724770644,0.034403669724770644,0.03669724770642202,0.0,0.009174311926605505,0.02522935779816514,0.020642201834862386,0.020642201834862386,0.020642201834862386,0.027522935779816515,0.009174311926605505,0.020642201834862386,0.022935779816513763,0.027522935779816515,0.011467889908256881,0.02981651376146789,0.020642201834862386,0.013761467889908258,0.02522935779816514
S7_D8 hbo,0.016194331983805668,0.0,0.021592442645074223,0.02564102564102564,0.005398110661268556,0.024291497975708502,0.020242914979757085,0.04588394062078273,0.0,0.005398110661268556,0.0,0.014844804318488529,0.020242914979757085,0.009446693657219974,0.0,0.014844804318488529,0.04723346828609987,0.014844804318488529,0.014844804318488529,0.03643724696356275,0.012145748987854251,0.022941970310391364,0.048582995951417005,0.008097165991902834,0.0310391363022942,0.02564102564102564,0.018893387314439947,0.018893387314439947,0.02834008097165992,0.01349527665317139,0.005398110661268556,0.014844804318488529,0.018893387314439947,0.04048582995951417,0.029689608636977057,0.021592442645074223,0.002699055330634278,0.010796221322537112,0.022941970310391364,0.012145748987854251,0.016194331983805668,0.020242914979757085,0.032388663967611336,0.017543859649122806,0.022941970310391364,0.017543859649122806,0.02564102564102564,0.017543859649122806,0.033738191632928474,0.024291497975708502,0.006747638326585695,0.020242914979757085
S8_D6 hbo,0.026845637583892617,0.0,0.040268456375838924,0.0,0.03355704697986577,0.026845637583892617,0.006711409395973154,0.03355704697986577,0.03355704697986577,0.020134228187919462,0.0,0.026845637583892617,0.0,0.026845637583892617,0.0,0.03355704697986577,0.020134228187919462,0.026845637583892617,0.013422818791946308,0.020134228187919462,0.03355704697986577,0.020134228187919462,0.013422818791946308,0.21476510067114093,0.0,0.0,0.013422818791946308,0.020134228187919462,0.013422818791946308,0.020134228187919462,0.040268456375838924,0.0,0.026845637583892617,0.0,0.013422818791946308,0.013422818791946308,0.0,0.0,0.026845637583892617,0.006711409395973154,0.020134228187919462,0.013422818791946308,0.026845637583892617,0.0,0.0,0.026845637583892617,0.006711409395973154,0.006711409395973154,0.006711409395973154,0.0,0.020134228187919462,0.006711409395973154
S8_D8 hbo,0.011441647597254004,0.0,0.018306636155606407,0.029748283752860413,0.011441647597254004,0.016018306636155607,0.013729977116704805,0.036613272311212815,0.0,0.011441647597254004,0.0,0.02288329519450801,0.018306636155606407,0.006864988558352402,0.0,0.009153318077803204,0.038901601830663615,0.013729977116704805,0.013729977116704805,0.043478260869565216,0.020594965675057208,0.013729977116704805,0.04576659038901602,0.004576659038901602,0.06864988558352403,0.034324942791762014,0.016018306636155607,0.011441647597254004,0.036613272311212815,0.009153318077803204,0.006864988558352402,0.020594965675057208,0.016018306636155607,0.043478260869565216,0.02288329519450801,0.011441647597254004,0.004576659038901602,0.011441647597254004,0.029748283752860413,0.009153318077803204,0.011441647597254004,0.016018306636155607,0.032036613272311214,0.018306636155606407,0.018306636155606407,0.013729977116704805,0.029748283752860413,0.02517162471395881,0.032036613272311214,0.02745995423340961,0.0,0.02288329519450801
S8_D15 hbo,0.014035087719298246,0.0,0.008771929824561403,0.031578947368421054,0.014035087719298246,0.015789473684210527,0.015789473684210527,0.03333333333333333,0.0,0.0,0.0,0.008771929824561403,0.012280701754385965,0.008771929824561403,0.0017543859649122807,0.02631578947368421,0.03508771929824561,0.01929824561403509,0.0035087719298245615,0.028070175438596492,0.0017543859649122807,0.017543859649122806,0.03684210526315789,0.0017543859649122807,0.03333333333333333,0.05263157894736842,0.014035087719298246,0.02280701754385965,0.02631578947368421,0.01929824561403509,0.0017543859649122807,0.03684210526315789,0.015789473684210527,0.03859649122807018,0.03684210526315789,0.017543859649122806,0.017543859649122806,0.01929824561403509,0.02982456140350877,0.012280701754385965,0.014035087719298246,0.017543859649122806,0.028070175438596492,0.02982456140350877,0.017543859649122806,0.01929824561403509,0.03684210526315789,0.0035087719298245615,0.03508771929824561,0.02456140350877193,0.015789473684210527,0.028070175438596492
S9_D2 hbo,0.01909307875894988,0.0,0.011933174224343675,0.03341288782816229,0.0,0.011933174224343675,0.021479713603818614,0.0405727923627685,0.0,0.0,0.0,0.002386634844868735,0.021479713603818614,0.011933174224343675,0.0,0.011933174224343675,0.0405727923627685,0.00954653937947494,0.016706443914081145,0.03818615751789976,0.011933174224343675,0.021479713603818614,0.031026252983293555,0.00954653937947494,0.011933174224343675,0.014319809069212411,0.045346062052505964,0.03341288782816229,0.026252983293556086,0.03341288782816229,0.0,0.021479713603818614,0.028639618138424822,0.02386634844868735,0.031026252983293555,0.02386634844868735,0.0,0.021479713603818614,0.028639618138424822,0.021479713603818614,0.028639618138424822,0.016706443914081145,0.03818615751789976,0.026252983293556086,0.028639618138424822,0.03341288782816229,0.016706443914081145,0.021479713603818614,0.028639618138424822,0.00954653937947494,0.011933174224343675,0.00954653937947494
S9_D9 hbo,0.022684310018903593,0.0,0.01890359168241966,0.01890359168241966,0.0,0.01890359168241966,0.024574669187145556,0.04158790170132325,0.005671077504725898,0.0,0.0,0.007561436672967864,0.00945179584120983,0.011342155009451797,0.001890359168241966,0.045368620037807186,0.034026465028355386,0.001890359168241966,0.013232514177693762,0.020793950850661626,0.011342155009451797,0.022684310018903593,0.024574669187145556,0.00945179584120983,0.005671077504725898,0.020793950850661626,0.024574669187145556,0.06427221172022685,0.01890359168241966,0.045368620037807186,0.0,0.020793950850661626,0.034026465028355386,0.017013232514177693,0.035916824196597356,0.022684310018903593,0.017013232514177693,0.011342155009451797,0.043478260869565216,0.013232514177693762,0.020793950850661626,0.015122873345935728,0.024574669187145556,0.022684310018903593,0.015122873345935728,0.03213610586011342,0.015122873345935728,0.007561436672967864,0.020793950850661626,0.013232514177693762,0.030245746691871456,0.022684310018903593
S9_D11 hbo,0.013816925734024179,0.0,0.015544041450777202,0.02936096718480138,0.02072538860103627,0.02072538860103627,0.018998272884283247,0.03626943005181347,0.0,0.0,0.0,0.012089810017271158,0.010362694300518135,0.012089810017271158,0.0,0.013816925734024179,0.04835924006908463,0.018998272884283247,0.013816925734024179,0.027633851468048358,0.0069084628670120895,0.013816925734024179,0.03454231433506045,0.0069084628670120895,0.031088082901554404,0.02936096718480138,0.010362694300518135,0.018998272884283247,0.07081174438687392,0.013816925734024179,0.0069084628670120895,0.024179620034542316,0.008635578583765112,0.031088082901554404,0.037996545768566495,0.015544041450777202,0.0034542314335060447,0.012089810017271158,0.024179620034542316,0.0069084628670120895,0.008635578583765112,0.018998272884283247,0.03454231433506045,0.017271157167530225,0.018998272884283247,0.02072538860103627,0.039723661485319514,0.010362694300518135,0.039723661485319514,0.037996545768566495,0.0,0.03281519861830743
S10_D9 hbo,0.03526448362720403,0.0,0.012594458438287154,0.012594458438287154,0.0025188916876574307,0.012594458438287154,0.015113350125944584,0.04030226700251889,0.005037783375314861,0.0,0.0,0.0025188916876574307,0.010075566750629723,0.017632241813602016,0.0025188916876574307,0.042821158690176324,0.030226700251889168,0.0025188916876574307,0.012594458438287154,0.027707808564231738,0.015113350125944584,0.015113350125944584,0.017632241813602016,0.012594458438287154,0.007556675062972292,0.020151133501259445,0.022670025188916875,0.05289672544080604,0.022670025188916875,0.06801007556675064,0.0,0.030226700251889168,0.0327455919395466,0.012594458438287154,0.037783375314861464,0.015113350125944584,0.015113350125944584,0.015113350125944584,0.04534005037783375,0.012594458438287154,0.022670025188916875,0.007556675062972292,0.030226700251889168,0.027707808564231738,0.007556675062972292,0.04030226700251889,0.010075566750629723,0.007556675062972292,0.017632241813602016,0.007556675062972292,0.037783375314861464,0.027707808564231738
S10_D10 hbo,0.04424778761061947,0.0,0.04424778761061947,0.0,0.0,0.07079646017699115,0.02654867256637168,0.0,0.07964601769911504,0.0,0.0,0.04424778761061947,0.0,0.0,0.0,0.0,0.02654867256637168,0.0,0.035398230088495575,0.0,0.035398230088495575,0.0,0.035398230088495575,0.035398230088495575,0.04424778761061947,0.017699115044247787,0.0,0.0,0.04424778761061947,0.0,0.18584070796460178,0.0,0.0,0.035398230088495575,0.035398230088495575,0.0,0.02654867256637168,0.02654867256637168,0.04424778761061947,0.0,0.0,0.02654867256637168,0.0,0.0,0.0,0.0,0.0,0.035398230088495575,0.0,0.0,0.0,0.0
S10_D12 hbo,0.017316017316017316,0.0,0.0,0.0367965367965368,0.017316017316017316,0.0,0.012987012987012988,0.03463203463203463,0.004329004329004329,0.004329004329004329,0.0,0.0,0.017316017316017316,0.010822510822510822,0.0021645021645021645,0.023809523809523808,0.03463203463203463,0.023809523809523808,0.0,0.03463203463203463,0.0,0.008658008658008658,0.02813852813852814,0.0,0.023809523809523808,0.04112554112554113,0.01948051948051948,0.025974025974025976,0.030303030303030304,0.030303030303030304,0.0,0.05844155844155844,0.015151515151515152,0.025974025974025976,0.03896103896103896,0.015151515151515152,0.012987012987012988,0.025974025974025976,0.023809523809523808,0.015151515151515152,0.017316017316017316,0.015151515151515152,0.0367965367965368,0.0367965367965368,0.017316017316017316,0.02813852813852814,0.03463203463203463,0.0021645021645021645,0.032467532467532464,0.023809523809523808,0.015151515151515152,0.025974025974025976
S11_D9 hbo,0.017857142857142856,0.0,0.013392857142857142,0.015625,0.0,0.017857142857142856,0.022321428571428572,0.044642857142857144,0.011160714285714286,0.0,0.0,0.002232142857142857,0.015625,0.013392857142857142,0.0,0.029017857142857144,0.026785714285714284,0.006696428571428571,0.004464285714285714,0.026785714285714284,0.013392857142857142,0.033482142857142856,0.033482142857142856,0.011160714285714286,0.020089285714285716,0.020089285714285716,0.026785714285714284,0.04241071428571429,0.015625,0.033482142857142856,0.0,0.015625,0.07142857142857142,0.026785714285714284,0.03571428571428571,0.022321428571428572,0.0,0.015625,0.026785714285714284,0.020089285714285716,0.033482142857142856,0.013392857142857142,0.03125,0.015625,0.013392857142857142,0.04017857142857143,0.015625,0.008928571428571428,0.020089285714285716,0.008928571428571428,0.022321428571428572,0.024553571428571428
S11_D11 hbo,0.012965964343598054,0.0,0.01620745542949757,0.03241491085899514,0.006482982171799027,0.02593192868719611,0.02106969205834684,0.04051863857374392,0.0,0.004862236628849271,0.0,0.014586709886547812,0.02106969205834684,0.004862236628849271,0.0,0.011345218800648298,0.04213938411669368,0.01620745542949757,0.012965964343598054,0.03079416531604538,0.004862236628849271,0.02106969205834684,0.04700162074554295,0.0032414910858995136,0.03403565640194489,0.03079416531604538,0.019448946515397084,0.014586709886547812,0.03079416531604538,0.009724473257698542,0.008103727714748784,0.019448946515397084,0.014586709886547812,0.05834683954619125,0.03565640194489465,0.019448946515397084,0.008103727714748784,0.019448946515397084,0.019448946515397084,0.008103727714748784,0.009724473257698542,0.02106969205834684,0.027552674230145867,0.019448946515397084,0.03079416531604538,0.014586709886547812,0.027552674230145867,0.02106969205834684,0.03727714748784441,0.027552674230145867,0.0,0.022690437601296597
S11_D12 hbo,0.017543859649122806,0.0,0.017543859649122806,0.02506265664160401,0.018796992481203006,0.02756892230576441,0.020050125313283207,0.03884711779448621,0.0012531328320802004,0.0,0.0,0.011278195488721804,0.010025062656641603,0.020050125313283207,0.0,0.020050125313283207,0.03508771929824561,0.012531328320802004,0.011278195488721804,0.02631578947368421,0.010025062656641603,0.020050125313283207,0.03132832080200501,0.007518796992481203,0.017543859649122806,0.023809523809523808,0.015037593984962405,0.023809523809523808,0.02631578947368421,0.020050125313283207,0.008771929824561403,0.021303258145363407,0.020050125313283207,0.03007518796992481,0.05639097744360902,0.021303258145363407,0.005012531328320802,0.02631578947368421,0.015037593984962405,0.011278195488721804,0.015037593984962405,0.018796992481203006,0.02631578947368421,0.017543859649122806,0.016290726817042606,0.03634085213032581,0.03383458646616541,0.008771929824561403,0.03007518796992481,0.021303258145363407,0.017543859649122806,0.03383458646616541
S11_D13 hbo,0.013953488372093023,0.0,0.027906976744186046,0.027906976744186046,0.0,0.02558139534883721,0.02558139534883721,0.044186046511627906,0.0,0.0,0.0,0.01627906976744186,0.01627906976744186,0.009302325581395349,0.0,0.018604651162790697,0.04186046511627907,0.0069767441860465115,0.004651162790697674,0.02558139534883721,0.009302325581395349,0.03255813953488372,0.037209302325581395,0.013953488372093023,0.011627906976744186,0.018604651162790697,0.027906976744186046,0.03255813953488372,0.020930232558139535,0.023255813953488372,0.0,0.01627906976744186,0.02558139534883721,0.027906976744186046,0.03953488372093023,0.037209302325581395,0.0,0.01627906976744186,0.018604651162790697,0.020930232558139535,0.023255813953488372,0.02558139534883721,0.027906976744186046,0.01627906976744186,0.023255813953488372,0.02558139534883721,0.027906976744186046,0.009302325581395349,0.03255813953488372,0.018604651162790697,0.011627906976744186,0.023255813953488372
S12_D10 hbo,0.04929577464788732,0.0,0.014084507042253521,0.0,0.0,0.035211267605633804,0.0,0.0,0.0,0.0,0.035211267605633804,0.014084507042253521,0.02112676056338028,0.0,0.007042253521126761,0.07042253521126761,0.0,0.0,0.007042253521126761,0.0,0.007042253521126761,0.0,0.007042253521126761,0.0,0.014084507042253521,0.04929577464788732,0.0,0.07746478873239436,0.014084507042253521,0.04225352112676056,0.028169014084507043,0.04225352112676056,0.0,0.014084507042253521,0.02112676056338028,0.0,0.15492957746478872,0.02112676056338028,0.07746478873239436,0.0,0.0,0.0,0.0,0.04929577464788732,0.0,0.0,0.0,0.007042253521126761,0.0,0.0,0.07746478873239436,0.04225352112676056
S12_D12 hbo,0.019230769230769232,0.0,0.0,0.028846153846153848,0.016025641025641024,0.016025641025641024,0.019230769230769232,0.028846153846153848,0.0,0.0,0.0,0.0,0.02564102564102564,0.016025641025641024,0.0,0.0,0.02564102564102564,0.01282051282051282,0.00641025641025641,0.028846153846153848,0.0,0.01282051282051282,0.022435897435897436,0.0,0.016025641025641024,0.022435897435897436,0.02564102564102564,0.019230769230769232,0.022435897435897436,0.02564102564102564,0.016025641025641024,0.035256410256410256,0.022435897435897436,0.03205128205128205,0.060897435897435896,0.022435897435897436,0.009615384615384616,0.060897435897435896,0.016025641025641024,0.019230769230769232,0.022435897435897436,0.022435897435897436,0.028846153846153848,0.041666666666666664,0.022435897435897436,0.04487179487179487,0.035256410256410256,0.0,0.022435897435897436,0.01282051282051282,0.01282051282051282,0.028846153846153848
S12_D14 hbo,0.0413625304136253,0.012165450121654502,0.019464720194647202,0.012165450121654502,0.009732360097323601,0.021897810218978103,0.0170316301703163,0.021897810218978103,0.0,0.0,0.0,0.012165450121654502,0.009732360097323601,0.021897810218978103,0.0072992700729927005,0.038929440389294405,0.031630170316301706,0.0,0.024330900243309004,0.019464720194647202,0.0170316301703163,0.012165450121654502,0.021897810218978103,0.009732360097323601,0.024330900243309004,0.029197080291970802,0.019464720194647202,0.04866180048661801,0.031630170316301706,0.0413625304136253,0.0072992700729927005,0.0267639902676399,0.0170316301703163,0.024330900243309004,0.019464720194647202,0.009732360097323601,0.031630170316301706,0.012165450121654502,0.09245742092457421,0.0072992700729927005,0.014598540145985401,0.012165450121654502,0.021897810218978103,0.031630170316301706,0.0072992700729927005,0.021897810218978103,0.009732360097323601,0.009732360097323601,0.009732360097323601,0.004866180048661801,0.0267639902676399,0.004866180048661801
S13_D6 hbo,0.014084507042253521,0.0,0.014084507042253521,0.022535211267605635,0.0,0.014084507042253521,0.016901408450704224,0.03380281690140845,0.0,0.0,0.0,0.0028169014084507044,0.01971830985915493,0.011267605633802818,0.0,0.014084507042253521,0.03943661971830986,0.016901408450704224,0.008450704225352112,0.030985915492957747,0.011267605633802818,0.02535211267605634,0.036619718309859155,0.008450704225352112,0.014084507042253521,0.022535211267605635,0.036619718309859155,0.028169014084507043,0.016901408450704224,0.02535211267605634,0.0,0.02535211267605634,0.03380281690140845,0.02535211267605634,0.036619718309859155,0.030985915492957747,0.0,0.022535211267605635,0.01971830985915493,0.036619718309859155,0.03380281690140845,0.01971830985915493,0.03943661971830986,0.02535211267605634,0.022535211267605635,0.030985915492957747,0.02535211267605634,0.014084507042253521,0.036619718309859155,0.011267605633802818,0.014084507042253521,0.011267605633802818
S13_D11 hbo,0.01818181818181818,0.0,0.01038961038961039,0.02077922077922078,0.0,0.01038961038961039,0.02857142857142857,0.04415584415584416,0.015584415584415584,0.0,0.0,0.0025974025974025974,0.02077922077922078,0.012987012987012988,0.0,0.02077922077922078,0.02857142857142857,0.01038961038961039,0.005194805194805195,0.03116883116883117,0.012987012987012988,0.02077922077922078,0.025974025974025976,0.012987012987012988,0.012987012987012988,0.015584415584415584,0.02857142857142857,0.03636363636363636,0.01818181818181818,0.03116883116883117,0.0,0.02077922077922078,0.046753246753246755,0.02077922077922078,0.033766233766233764,0.023376623376623377,0.0,0.02077922077922078,0.025974025974025976,0.02077922077922078,0.06493506493506493,0.01818181818181818,0.033766233766233764,0.02077922077922078,0.01818181818181818,0.03896103896103896,0.01818181818181818,0.005194805194805195,0.023376623376623377,0.01038961038961039,0.015584415584415584,0.023376623376623377
S13_D13 hbo,0.016,0.0,0.02666666666666667,0.029333333333333333,0.005333333333333333,0.02666666666666667,0.037333333333333336,0.032,0.0,0.0,0.0,0.02666666666666667,0.021333333333333333,0.0,0.0,0.008,0.04,0.008,0.013333333333333334,0.018666666666666668,0.013333333333333334,0.021333333333333333,0.04,0.010666666666666666,0.02666666666666667,0.02666666666666667,0.018666666666666668,0.021333333333333333,0.034666666666666665,0.013333333333333334,0.013333333333333334,0.018666666666666668,0.016,0.04,0.037333333333333336,0.029333333333333333,0.005333333333333333,0.018666666666666668,0.024,0.013333333333333334,0.016,0.04,0.018666666666666668,0.018666666666666668,0.024,0.018666666666666668,0.029333333333333333,0.013333333333333334,0.02666666666666667,0.018666666666666668,0.0,0.024
S13_D15 hbo,0.015503875968992248,0.0,0.009302325581395349,0.02635658914728682,0.015503875968992248,0.009302325581395349,0.009302325581395349,0.04496124031007752,0.0,0.0,0.0,0.0015503875968992248,0.017054263565891473,0.021705426356589147,0.0,0.023255813953488372,0.046511627906976744,0.021705426356589147,0.009302325581395349,0.04186046511627907,0.009302325581395349,0.015503875968992248,0.03565891472868217,0.007751937984496124,0.023255813953488372,0.024806201550387597,0.024806201550387597,0.018604651162790697,0.03255813953488372,0.021705426356589147,0.0,0.027906976744186046,0.021705426356589147,0.023255813953488372,0.03565891472868217,0.017054263565891473,0.0,0.017054263565891473,0.015503875968992248,0.017054263565891473,0.020155038759689922,0.010852713178294573,0.05116279069767442,0.024806201550387597,0.018604651162790697,0.031007751937984496,0.02945736434108527,0.013953488372093023,0.03875968992248062,0.02635658914728682,0.009302325581395349,0.023255813953488372
S14_D12 hbo,0.02127659574468085,0.0,0.0,0.02364066193853428,0.01182033096926714,0.0,0.014184397163120567,0.030732860520094562,0.0,0.0,0.0,0.0,0.02364066193853428,0.014184397163120567,0.002364066193853428,0.02364066193853428,0.028368794326241134,0.01182033096926714,0.01182033096926714,0.028368794326241134,0.0,0.009456264775413711,0.026004728132387706,0.0,0.014184397163120567,0.03546099290780142,0.026004728132387706,0.03309692671394799,0.026004728132387706,0.030732860520094562,0.0,0.0425531914893617,0.016548463356973995,0.02364066193853428,0.037825059101654845,0.016548463356973995,0.02127659574468085,0.03546099290780142,0.03309692671394799,0.016548463356973995,0.018912529550827423,0.016548463356973995,0.03309692671394799,0.06382978723404255,0.026004728132387706,0.03309692671394799,0.028368794326241134,0.0070921985815602835,0.02127659574468085,0.01182033096926714,0.028368794326241134,0.02127659574468085
S14_D13 hbo,0.004662004662004662,0.0,0.011655011655011656,0.04195804195804196,0.0,0.013986013986013986,0.02564102564102564,0.046620046620046623,0.0,0.002331002331002331,0.0,0.009324009324009324,0.027972027972027972,0.002331002331002331,0.0,0.009324009324009324,0.04195804195804196,0.011655011655011656,0.011655011655011656,0.030303030303030304,0.0,0.023310023310023312,0.04195804195804196,0.002331002331002331,0.018648018648018648,0.02097902097902098,0.03263403263403263,0.023310023310023312,0.030303030303030304,0.011655011655011656,0.0,0.018648018648018648,0.016317016317016316,0.04428904428904429,0.03263403263403263,0.030303030303030304,0.0,0.018648018648018648,0.011655011655011656,0.013986013986013986,0.016317016317016316,0.027972027972027972,0.03263403263403263,0.030303030303030304,0.046620046620046623,0.018648018648018648,0.030303030303030304,0.02097902097902098,0.04195804195804196,0.027972027972027972,0.0,0.023310023310023312
S14_D14 hbo,0.01768172888015717,0.0,0.007858546168958742,0.019646365422396856,0.025540275049115914,0.007858546168958742,0.011787819253438114,0.03732809430255403,0.0019646365422396855,0.0,0.0,0.0019646365422396855,0.0137524557956778,0.03339882121807466,0.0,0.0275049115913556,0.029469548133595286,0.015717092337917484,0.011787819253438114,0.03143418467583497,0.009823182711198428,0.015717092337917484,0.021611001964636542,0.009823182711198428,0.015717092337917484,0.021611001964636542,0.019646365422396856,0.0275049115913556,0.023575638506876228,0.0275049115913556,0.0,0.029469548133595286,0.03143418467583497,0.019646365422396856,0.0550098231827112,0.015717092337917484,0.0,0.0275049115913556,0.019646365422396856,0.0137524557956778,0.019646365422396856,0.011787819253438114,0.03536345776031434,0.025540275049115914,0.011787819253438114,0.05697445972495088,0.03143418467583497,0.003929273084479371,0.025540275049115914,0.01768172888015717,0.025540275049115914,0.03536345776031434
S14_D16 hbo,0.0032733224222585926,0.0,0.011456628477905073,0.03764320785597381,0.024549918166939442,0.014729950900163666,0.019639934533551555,0.04091653027823241,0.0,0.0016366612111292963,0.0,0.011456628477905073,0.01309328968903437,0.01800327332242226,0.0,0.014729950900163666,0.0425531914893617,0.02127659574468085,0.0032733224222585926,0.029459901800327332,0.0016366612111292963,0.01800327332242226,0.03273322422258593,0.004909983633387889,0.024549918166939442,0.03273322422258593,0.014729950900163666,0.016366612111292964,0.03436988543371522,0.009819967266775777,0.0,0.027823240589198037,0.011456628477905073,0.031096563011456628,0.04746317512274959,0.022913256955810146,0.0,0.02127659574468085,0.009819967266775777,0.011456628477905073,0.01309328968903437,0.019639934533551555,0.031096563011456628,0.02127659574468085,0.022913256955810146,0.029459901800327332,0.05073649754500818,0.0032733224222585926,0.044189852700491,0.03436988543371522,0.006546644844517185,0.0425531914893617
S15_D13 hbo,0.026392961876832845,0.0,0.03519061583577713,0.02346041055718475,0.002932551319648094,0.03519061583577713,0.011730205278592375,0.03519061583577713,0.0,0.011730205278592375,0.0,0.02932551319648094,0.008797653958944282,0.01466275659824047,0.0,0.017595307917888565,0.03812316715542522,0.0,0.03225806451612903,0.03812316715542522,0.04105571847507331,0.020527859237536656,0.04398826979472141,0.011730205278592375,0.03812316715542522,0.008797653958944282,0.03519061583577713,0.017595307917888565,0.02932551319648094,0.01466275659824047,0.01466275659824047,0.0,0.017595307917888565,0.026392961876832845,0.02346041055718475,0.01466275659824047,0.005865102639296188,0.0,0.02346041055718475,0.01466275659824047,0.011730205278592375,0.011730205278592375,0.03519061583577713,0.01466275659824047,0.02346041055718475,0.011730205278592375,0.005865102639296188,0.07038123167155426,0.026392961876832845,0.008797653958944282,0.01466275659824047,0.002932551319648094
S15_D15 hbo,0.007132667617689016,0.0,0.012838801711840228,0.03566333808844508,0.014265335235378032,0.017118402282453638,0.017118402282453638,0.0456490727532097,0.0,0.0014265335235378032,0.0,0.008559201141226819,0.017118402282453638,0.014265335235378032,0.0,0.018544935805991442,0.0456490727532097,0.018544935805991442,0.008559201141226819,0.034236804564907276,0.0042796005706134095,0.019971469329529243,0.037089871611982884,0.007132667617689016,0.024251069900142655,0.025677603423680456,0.024251069900142655,0.018544935805991442,0.03138373751783167,0.012838801711840228,0.0,0.021398002853067047,0.014265335235378032,0.037089871611982884,0.037089871611982884,0.02282453637660485,0.0,0.011412268188302425,0.011412268188302425,0.012838801711840228,0.014265335235378032,0.017118402282453638,0.03566333808844508,0.015691868758915834,0.029957203994293864,0.02282453637660485,0.037089871611982884,0.017118402282453638,0.05135520684736091,0.034236804564907276,0.0042796005706134095,0.029957203994293864
S15_D16 hbo,0.0019230769230769232,0.0,0.009615384615384616,0.032692307692307694,0.021153846153846155,0.015384615384615385,0.015384615384615385,0.046153846153846156,0.0,0.011538461538461539,0.0,0.007692307692307693,0.01730769230769231,0.015384615384615385,0.0,0.019230769230769232,0.05,0.023076923076923078,0.007692307692307693,0.03461538461538462,0.0,0.01730769230769231,0.04038461538461539,0.0019230769230769232,0.026923076923076925,0.028846153846153848,0.011538461538461539,0.015384615384615385,0.038461538461538464,0.009615384615384616,0.0,0.021153846153846155,0.007692307692307693,0.03653846153846154,0.03653846153846154,0.019230769230769232,0.0,0.007692307692307693,0.007692307692307693,0.0057692307692307696,0.007692307692307693,0.01730769230769231,0.03653846153846154,0.013461538461538462,0.028846153846153848,0.01730769230769231,0.04423076923076923,0.009615384615384616,0.05384615384615385,0.07115384615384615,0.0,0.038461538461538464
S16_D14 hbo,0.03594771241830065,0.0,0.016339869281045753,0.0,0.0196078431372549,0.016339869281045753,0.0032679738562091504,0.026143790849673203,0.0032679738562091504,0.0,0.0032679738562091504,0.0032679738562091504,0.0,0.0392156862745098,0.0032679738562091504,0.058823529411764705,0.013071895424836602,0.0,0.016339869281045753,0.016339869281045753,0.0196078431372549,0.016339869281045753,0.013071895424836602,0.016339869281045753,0.0,0.029411764705882353,0.013071895424836602,0.05555555555555555,0.0,0.042483660130718956,0.0,0.02287581699346405,0.032679738562091505,0.0,0.042483660130718956,0.00980392156862745,0.042483660130718956,0.016339869281045753,0.049019607843137254,0.00980392156862745,0.016339869281045753,0.0,0.0196078431372549,0.0457516339869281,0.0,0.05228758169934641,0.016339869281045753,0.00980392156862745,0.00980392156862745,0.0,0.08169934640522876,0.042483660130718956
S16_D16 hbo,0.0018248175182481751,0.0,0.012773722627737226,0.029197080291970802,0.029197080291970802,0.010948905109489052,0.023722627737226276,0.04744525547445255,0.0072992700729927005,0.0,0.0018248175182481751,0.010948905109489052,0.0072992700729927005,0.021897810218978103,0.0,0.025547445255474453,0.040145985401459854,0.01824817518248175,0.0036496350364963502,0.023722627737226276,0.0,0.012773722627737226,0.02737226277372263,0.005474452554744526,0.020072992700729927,0.029197080291970802,0.0072992700729927005,0.025547445255474453,0.029197080291970802,0.025547445255474453,0.0,0.021897810218978103,0.020072992700729927,0.023722627737226276,0.04744525547445255,0.01824817518248175,0.009124087591240875,0.014598540145985401,0.0072992700729927005,0.005474452554744526,0.012773722627737226,0.016423357664233577,0.02737226277372263,0.014598540145985401,0.014598540145985401,0.0364963503649635,0.04562043795620438,0.0018248175182481751,0.03832116788321168,0.032846715328467155,0.020072992700729927,0.072992700729927
