,S1_D1 hbo,S1_D3 hbo,S2_D1 hbo,S2_D2 hbo,S2_D4 hbo,S3_D1 hbo,S3_D3 hbo,S3_D4 hbo,S3_D5 hbo,S4_D2 hbo,S4_D4 hbo,S4_D6 hbo,S4_D11 hbo,S5_D3 hbo,S5_D5 hbo,S5_D7 hbo,S6_D4 hbo,S6_D5 hbo,S6_D6 hbo,S6_D8 hbo,S7_D5 hbo,S7_D7 hbo,S7_D8 hbo,S8_D6 hbo,S8_D8 hbo,S8_D15 hbo,S9_D2 hbo,S9_D9 hbo,S9_D11 hbo,S10_D9 hbo,S10_D10 hbo,S10_D12 hbo,S11_D9 hbo,S11_D11 hbo,S11_D12 hbo,S11_D13 hbo,S12_D10 hbo,S12_D12 hbo,S12_D14 hbo,S13_D6 hbo,S13_D11 hbo,S13_D13 hbo,S13_D15 hbo,S14_D12 hbo,S14_D13 hbo,S14_D14 hbo,S14_D16 hbo,S15_D13 hbo,S15_D15 hbo,S15_D16 hbo,S16_D14 hbo,S16_D16 hbo
S1_D1 hbo,0.024255788313120176,0.014332965821389196,0.022050716648291068,0.024255788313120176,0.025358324145534728,0.025358324145534728,0.008820286659316428,0.023153252480705624,0.025358324145534728,0.014332965821389196,0.025358324145534728,0.024255788313120176,0.025358324145534728,0.008820286659316428,0.017640573318632856,0.018743109151047408,0.025358324145534728,0.020948180815876516,0.023153252480705624,0.014332965821389196,0.022050716648291068,0.018743109151047408,0.025358324145534728,0.019845644983461964,0.025358324145534728,0.023153252480705624,0.025358324145534728,0.019845644983461964,0.024255788313120176,0.022050716648291068,0.0,0.0,0.024255788313120176,0.024255788313120176,0.024255788313120176,0.023153252480705624,0.012127894156560088,0.0033076074972436605,0.007717750826901874,0.025358324145534728,0.023153252480705624,0.025358324145534728,0.025358324145534728,0.009922822491730982,0.024255788313120176,0.0,0.024255788313120176,0.014332965821389196,0.024255788313120176,0.024255788313120176,0.0,0.023153252480705624
S1_D3 hbo,0.023931623931623933,0.022222222222222223,0.023931623931623933,0.023931623931623933,0.023931623931623933,0.023931623931623933,0.013675213675213675,0.023931623931623933,0.023931623931623933,0.006837606837606838,0.023931623931623933,0.023931623931623933,0.023931623931623933,0.013675213675213675,0.023931623931623933,0.017094017094017096,0.023931623931623933,0.023931623931623933,0.023931623931623933,0.006837606837606838,0.023931623931623933,0.018803418803418803,0.023931623931623933,0.015384615384615385,0.023931623931623933,0.023931623931623933,0.023931623931623933,0.023931623931623933,0.023931623931623933,0.023931623931623933,0.0,0.0,0.023931623931623933,0.023931623931623933,0.022222222222222223,0.023931623931623933,0.018803418803418803,0.005128205128205128,0.011965811965811967,0.023931623931623933,0.023931623931623933,0.023931623931623933,0.023931623931623933,0.015384615384615385,0.022222222222222223,0.0,0.022222222222222223,0.006837606837606838,0.023931623931623933,0.022222222222222223,0.0,0.020512820512820513
S2_D1 hbo,0.024475524475524476,0.015151515151515152,0.023310023310023312,0.024475524475524476,0.024475524475524476,0.024475524475524476,0.009324009324009324,0.024475524475524476,0.024475524475524476,0.01282051282051282,0.024475524475524476,0.024475524475524476,0.024475524475524476,0.009324009324009324,0.018648018648018648,0.019813519813519812,0.024475524475524476,0.022144522144522144,0.024475524475524476,0.01282051282051282,0.023310023310023312,0.019813519813519812,0.024475524475524476,0.018648018648018648,0.024475524475524476,0.024475524475524476,0.024475524475524476,0.02097902097902098,0.024475524475524476,0.023310023310023312,0.0,0.0,0.024475524475524476,0.024475524475524476,0.023310023310023312,0.024475524475524476,0.01282051282051282,0.0034965034965034965,0.008158508158508158,0.024475524475524476,0.024475524475524476,0.024475524475524476,0.024475524475524476,0.01048951048951049,0.023310023310023312,0.0,0.023310023310023312,0.01282051282051282,0.024475524475524476,0.023310023310023312,0.0,0.022144522144522144
S2_D2 hbo,0.024255788313120176,0.014332965821389196,0.022050716648291068,0.024255788313120176,0.025358324145534728,0.025358324145534728,0.008820286659316428,0.023153252480705624,0.025358324145534728,0.014332965821389196,0.025358324145534728,0.024255788313120176,0.025358324145534728,0.008820286659316428,0.017640573318632856,0.018743109151047408,0.025358324145534728,0.020948180815876516,0.023153252480705624,0.014332965821389196,0.022050716648291068,0.018743109151047408,0.025358324145534728,0.019845644983461964,0.025358324145534728,0.023153252480705624,0.025358324145534728,0.019845644983461964,0.024255788313120176,0.022050716648291068,0.0,0.0,0.024255788313120176,0.024255788313120176,0.024255788313120176,0.023153252480705624,0.012127894156560088,0.0033076074972436605,0.007717750826901874,0.025358324145534728,0.023153252480705624,0.025358324145534728,0.025358324145534728,0.009922822491730982,0.024255788313120176,0.0,0.024255788313120176,0.014332965821389196,0.024255788313120176,0.024255788313120176,0.0,0.023153252480705624
S2_D4 hbo,0.023529411764705882,0.013903743315508022,0.0213903743315508,0.023529411764705882,0.025668449197860963,0.02459893048128342,0.008556149732620321,0.022459893048128343,0.025668449197860963,0.016042780748663103,0.026737967914438502,0.023529411764705882,0.026737967914438502,0.008556149732620321,0.017112299465240642,0.01818181818181818,0.02459893048128342,0.020320855614973262,0.022459893048128343,0.016042780748663103,0.0213903743315508,0.01818181818181818,0.025668449197860963,0.0213903743315508,0.02459893048128342,0.022459893048128343,0.02459893048128342,0.019251336898395723,0.023529411764705882,0.0213903743315508,0.0,0.0,0.023529411764705882,0.023529411764705882,0.025668449197860963,0.022459893048128343,0.011764705882352941,0.0032085561497326204,0.0074866310160427805,0.025668449197860963,0.022459893048128343,0.02459893048128342,0.026737967914438502,0.009625668449197862,0.025668449197860963,0.0,0.025668449197860963,0.016042780748663103,0.023529411764705882,0.025668449197860963,0.0,0.02459893048128342
S3_D1 hbo,0.023835319609967497,0.014084507042253521,0.021668472372697724,0.023835319609967497,0.02600216684723727,0.024918743228602384,0.00866738894907909,0.02275189599133261,0.02600216684723727,0.015167930660888408,0.02600216684723727,0.023835319609967497,0.02600216684723727,0.00866738894907909,0.01733477789815818,0.018418201516793065,0.024918743228602384,0.020585048754062838,0.02275189599133261,0.015167930660888408,0.021668472372697724,0.018418201516793065,0.02600216684723727,0.020585048754062838,0.024918743228602384,0.02275189599133261,0.024918743228602384,0.01950162513542795,0.023835319609967497,0.021668472372697724,0.0,0.0,0.023835319609967497,0.023835319609967497,0.024918743228602384,0.02275189599133261,0.011917659804983749,0.0032502708559046588,0.007583965330444204,0.02600216684723727,0.02275189599133261,0.024918743228602384,0.02600216684723727,0.009750812567713976,0.024918743228602384,0.0,0.024918743228602384,0.015167930660888408,0.023835319609967497,0.024918743228602384,0.0,0.023835319609967497
S3_D3 hbo,0.023872679045092837,0.023872679045092837,0.023872679045092837,0.023872679045092837,0.023872679045092837,0.023872679045092837,0.021220159151193633,0.023872679045092837,0.023872679045092837,0.0,0.023872679045092837,0.023872679045092837,0.023872679045092837,0.021220159151193633,0.023872679045092837,0.013262599469496022,0.023872679045092837,0.023872679045092837,0.023872679045092837,0.0,0.023872679045092837,0.015915119363395226,0.023872679045092837,0.010610079575596816,0.023872679045092837,0.023872679045092837,0.023872679045092837,0.023872679045092837,0.023872679045092837,0.023872679045092837,0.0,0.0,0.023872679045092837,0.023872679045092837,0.021220159151193633,0.023872679045092837,0.023872679045092837,0.007957559681697613,0.01856763925729443,0.023872679045092837,0.023872679045092837,0.023872679045092837,0.023872679045092837,0.023872679045092837,0.021220159151193633,0.0,0.021220159151193633,0.0,0.023872679045092837,0.021220159151193633,0.0,0.01856763925729443
S3_D4 hbo,0.024734982332155476,0.014134275618374558,0.02237926972909305,0.024734982332155476,0.024734982332155476,0.024734982332155476,0.008244994110718492,0.023557126030624265,0.024734982332155476,0.014134275618374558,0.024734982332155476,0.024734982332155476,0.024734982332155476,0.008244994110718492,0.0176678445229682,0.020023557126030624,0.024734982332155476,0.02120141342756184,0.023557126030624265,0.014134275618374558,0.02237926972909305,0.020023557126030624,0.024734982332155476,0.020023557126030624,0.024734982332155476,0.023557126030624265,0.024734982332155476,0.020023557126030624,0.024734982332155476,0.02237926972909305,0.0,0.0,0.024734982332155476,0.024734982332155476,0.024734982332155476,0.023557126030624265,0.011778563015312132,0.002355712603062426,0.007067137809187279,0.024734982332155476,0.023557126030624265,0.024734982332155476,0.024734982332155476,0.009422850412249705,0.024734982332155476,0.0,0.024734982332155476,0.014134275618374558,0.024734982332155476,0.024734982332155476,0.0,0.023557126030624265
S3_D5 hbo,0.023529411764705882,0.013903743315508022,0.0213903743315508,0.023529411764705882,0.025668449197860963,0.02459893048128342,0.008556149732620321,0.022459893048128343,0.025668449197860963,0.016042780748663103,0.026737967914438502,0.023529411764705882,0.026737967914438502,0.008556149732620321,0.017112299465240642,0.01818181818181818,0.02459893048128342,0.020320855614973262,0.022459893048128343,0.016042780748663103,0.0213903743315508,0.01818181818181818,0.025668449197860963,0.0213903743315508,0.02459893048128342,0.022459893048128343,0.02459893048128342,0.019251336898395723,0.023529411764705882,0.0213903743315508,0.0,0.0,0.023529411764705882,0.023529411764705882,0.025668449197860963,0.022459893048128343,0.011764705882352941,0.0032085561497326204,0.0074866310160427805,0.025668449197860963,0.022459893048128343,0.02459893048128342,0.026737967914438502,0.009625668449197862,0.025668449197860963,0.0,0.025668449197860963,0.016042780748663103,0.023529411764705882,0.025668449197860963,0.0,0.02459893048128342
S4_D2 hbo,0.022357723577235773,0.0040650406504065045,0.018292682926829267,0.022357723577235773,0.026422764227642278,0.024390243902439025,0.0,0.02032520325203252,0.026422764227642278,0.03861788617886179,0.028455284552845527,0.022357723577235773,0.028455284552845527,0.0,0.01016260162601626,0.02032520325203252,0.024390243902439025,0.016260162601626018,0.02032520325203252,0.034552845528455285,0.018292682926829267,0.018292682926829267,0.026422764227642278,0.036585365853658534,0.024390243902439025,0.02032520325203252,0.024390243902439025,0.014227642276422764,0.022357723577235773,0.018292682926829267,0.0,0.0,0.022357723577235773,0.022357723577235773,0.028455284552845527,0.02032520325203252,0.0,0.0,0.0,0.026422764227642278,0.02032520325203252,0.024390243902439025,0.028455284552845527,0.0,0.028455284552845527,0.0,0.028455284552845527,0.034552845528455285,0.022357723577235773,0.028455284552845527,0.0,0.032520325203252036
S4_D4 hbo,0.023255813953488372,0.013289036544850499,0.021040974529346623,0.023255813953488372,0.02547065337763012,0.024363233665559248,0.007751937984496124,0.0221483942414175,0.02547065337763012,0.017718715393133997,0.026578073089700997,0.023255813953488372,0.026578073089700997,0.007751937984496124,0.016611295681063124,0.018826135105204873,0.024363233665559248,0.019933554817275746,0.0221483942414175,0.017718715393133997,0.021040974529346623,0.018826135105204873,0.02547065337763012,0.023255813953488372,0.024363233665559248,0.0221483942414175,0.024363233665559248,0.018826135105204873,0.023255813953488372,0.021040974529346623,0.0,0.0,0.023255813953488372,0.023255813953488372,0.026578073089700997,0.0221483942414175,0.01107419712070875,0.0022148394241417496,0.006644518272425249,0.02547065337763012,0.0221483942414175,0.024363233665559248,0.026578073089700997,0.008859357696566999,0.026578073089700997,0.0,0.026578073089700997,0.017718715393133997,0.023255813953488372,0.026578073089700997,0.0,0.026578073089700997
S4_D6 hbo,0.024255788313120176,0.014332965821389196,0.022050716648291068,0.024255788313120176,0.025358324145534728,0.025358324145534728,0.008820286659316428,0.023153252480705624,0.025358324145534728,0.014332965821389196,0.025358324145534728,0.024255788313120176,0.025358324145534728,0.008820286659316428,0.017640573318632856,0.018743109151047408,0.025358324145534728,0.020948180815876516,0.023153252480705624,0.014332965821389196,0.022050716648291068,0.018743109151047408,0.025358324145534728,0.019845644983461964,0.025358324145534728,0.023153252480705624,0.025358324145534728,0.019845644983461964,0.024255788313120176,0.022050716648291068,0.0,0.0,0.024255788313120176,0.024255788313120176,0.024255788313120176,0.023153252480705624,0.012127894156560088,0.0033076074972436605,0.007717750826901874,0.025358324145534728,0.023153252480705624,0.025358324145534728,0.025358324145534728,0.009922822491730982,0.024255788313120176,0.0,0.024255788313120176,0.014332965821389196,0.024255788313120176,0.024255788313120176,0.0,0.023153252480705624
S4_D11 hbo,0.023404255319148935,0.013829787234042552,0.02127659574468085,0.023404255319148935,0.02553191489361702,0.02446808510638298,0.00851063829787234,0.022340425531914895,0.02553191489361702,0.01702127659574468,0.026595744680851064,0.023404255319148935,0.026595744680851064,0.00851063829787234,0.01702127659574468,0.018085106382978722,0.02446808510638298,0.02021276595744681,0.022340425531914895,0.01702127659574468,0.02127659574468085,0.018085106382978722,0.02553191489361702,0.022340425531914895,0.02446808510638298,0.022340425531914895,0.02446808510638298,0.019148936170212766,0.023404255319148935,0.02127659574468085,0.0,0.0,0.023404255319148935,0.023404255319148935,0.02553191489361702,0.022340425531914895,0.011702127659574468,0.0031914893617021275,0.007446808510638298,0.02553191489361702,0.022340425531914895,0.02446808510638298,0.026595744680851064,0.009574468085106383,0.02553191489361702,0.0,0.02553191489361702,0.01702127659574468,0.023404255319148935,0.02553191489361702,0.0,0.02553191489361702
S5_D3 hbo,0.023872679045092837,0.023872679045092837,0.023872679045092837,0.023872679045092837,0.023872679045092837,0.023872679045092837,0.021220159151193633,0.023872679045092837,0.023872679045092837,0.0,0.023872679045092837,0.023872679045092837,0.023872679045092837,0.021220159151193633,0.023872679045092837,0.013262599469496022,0.023872679045092837,0.023872679045092837,0.023872679045092837,0.0,0.023872679045092837,0.015915119363395226,0.023872679045092837,0.010610079575596816,0.023872679045092837,0.023872679045092837,0.023872679045092837,0.023872679045092837,0.023872679045092837,0.023872679045092837,0.0,0.0,0.023872679045092837,0.023872679045092837,0.021220159151193633,0.023872679045092837,0.023872679045092837,0.007957559681697613,0.01856763925729443,0.023872679045092837,0.023872679045092837,0.023872679045092837,0.023872679045092837,0.023872679045092837,0.021220159151193633,0.0,0.021220159151193633,0.0,0.023872679045092837,0.021220159151193633,0.0,0.01856763925729443
S5_D5 hbo,0.024045261669024046,0.018387553041018388,0.024045261669024046,0.024045261669024046,0.024045261669024046,0.024045261669024046,0.011315417256011316,0.024045261669024046,0.024045261669024046,0.009900990099009901,0.024045261669024046,0.024045261669024046,0.024045261669024046,0.011315417256011316,0.02263083451202263,0.018387553041018388,0.024045261669024046,0.024045261669024046,0.024045261669024046,0.009900990099009901,0.024045261669024046,0.019801980198019802,0.024045261669024046,0.016973125884016973,0.024045261669024046,0.024045261669024046,0.024045261669024046,0.024045261669024046,0.024045261669024046,0.024045261669024046,0.0,0.0,0.024045261669024046,0.024045261669024046,0.02263083451202263,0.024045261669024046,0.015558698727015558,0.004243281471004243,0.009900990099009901,0.024045261669024046,0.024045261669024046,0.024045261669024046,0.024045261669024046,0.01272984441301273,0.02263083451202263,0.0,0.02263083451202263,0.009900990099009901,0.024045261669024046,0.02263083451202263,0.0,0.021216407355021217
S5_D7 hbo,0.024963289280469897,0.011747430249632892,0.022026431718061675,0.024963289280469897,0.024963289280469897,0.024963289280469897,0.004405286343612335,0.023494860499265784,0.024963289280469897,0.01762114537444934,0.024963289280469897,0.024963289280469897,0.024963289280469897,0.004405286343612335,0.016152716593245228,0.023494860499265784,0.024963289280469897,0.020558002936857563,0.023494860499265784,0.01762114537444934,0.022026431718061675,0.022026431718061675,0.024963289280469897,0.024963289280469897,0.024963289280469897,0.023494860499265784,0.024963289280469897,0.01908957415565345,0.024963289280469897,0.022026431718061675,0.0,0.0,0.024963289280469897,0.024963289280469897,0.024963289280469897,0.023494860499265784,0.00881057268722467,0.0,0.002936857562408223,0.024963289280469897,0.023494860499265784,0.024963289280469897,0.024963289280469897,0.005873715124816446,0.024963289280469897,0.0,0.024963289280469897,0.01762114537444934,0.024963289280469897,0.024963289280469897,0.0,0.024963289280469897
S6_D4 hbo,0.023835319609967497,0.014084507042253521,0.021668472372697724,0.023835319609967497,0.02600216684723727,0.024918743228602384,0.00866738894907909,0.02275189599133261,0.02600216684723727,0.015167930660888408,0.02600216684723727,0.023835319609967497,0.02600216684723727,0.00866738894907909,0.01733477789815818,0.018418201516793065,0.024918743228602384,0.020585048754062838,0.02275189599133261,0.015167930660888408,0.021668472372697724,0.018418201516793065,0.02600216684723727,0.020585048754062838,0.024918743228602384,0.02275189599133261,0.024918743228602384,0.01950162513542795,0.023835319609967497,0.021668472372697724,0.0,0.0,0.023835319609967497,0.023835319609967497,0.024918743228602384,0.02275189599133261,0.011917659804983749,0.0032502708559046588,0.007583965330444204,0.02600216684723727,0.02275189599133261,0.024918743228602384,0.02600216684723727,0.009750812567713976,0.024918743228602384,0.0,0.024918743228602384,0.015167930660888408,0.023835319609967497,0.024918743228602384,0.0,0.023835319609967497
S6_D5 hbo,0.024271844660194174,0.015776699029126214,0.024271844660194174,0.024271844660194174,0.024271844660194174,0.024271844660194174,0.009708737864077669,0.024271844660194174,0.024271844660194174,0.012135922330097087,0.024271844660194174,0.024271844660194174,0.024271844660194174,0.009708737864077669,0.019417475728155338,0.019417475728155338,0.024271844660194174,0.023058252427184466,0.024271844660194174,0.012135922330097087,0.024271844660194174,0.02063106796116505,0.024271844660194174,0.01820388349514563,0.024271844660194174,0.024271844660194174,0.024271844660194174,0.021844660194174758,0.024271844660194174,0.024271844660194174,0.0,0.0,0.024271844660194174,0.024271844660194174,0.023058252427184466,0.024271844660194174,0.013349514563106795,0.0036407766990291263,0.00849514563106796,0.024271844660194174,0.024271844660194174,0.024271844660194174,0.024271844660194174,0.010922330097087379,0.023058252427184466,0.0,0.023058252427184466,0.012135922330097087,0.024271844660194174,0.023058252427184466,0.0,0.021844660194174758
S6_D6 hbo,0.024830699774266364,0.014672686230248307,0.022573363431151242,0.024830699774266364,0.024830699774266364,0.024830699774266364,0.009029345372460496,0.023702031602708805,0.024830699774266364,0.013544018058690745,0.024830699774266364,0.024830699774266364,0.024830699774266364,0.009029345372460496,0.01805869074492099,0.019187358916478554,0.024830699774266364,0.02144469525959368,0.023702031602708805,0.013544018058690745,0.022573363431151242,0.019187358916478554,0.024830699774266364,0.019187358916478554,0.024830699774266364,0.023702031602708805,0.024830699774266364,0.020316027088036117,0.024830699774266364,0.022573363431151242,0.0,0.0,0.024830699774266364,0.024830699774266364,0.023702031602708805,0.023702031602708805,0.012415349887133182,0.003386004514672686,0.007900677200902935,0.024830699774266364,0.023702031602708805,0.024830699774266364,0.024830699774266364,0.010158013544018058,0.023702031602708805,0.0,0.023702031602708805,0.013544018058690745,0.024830699774266364,0.023702031602708805,0.0,0.022573363431151242
S6_D8 hbo,0.02240325865580448,0.004073319755600814,0.018329938900203666,0.02240325865580448,0.026476578411405296,0.024439918533604887,0.0,0.020366598778004074,0.026476578411405296,0.03665987780040733,0.028513238289205704,0.02240325865580448,0.028513238289205704,0.0,0.010183299389002037,0.020366598778004074,0.024439918533604887,0.016293279022403257,0.020366598778004074,0.034623217922606926,0.018329938900203666,0.018329938900203666,0.026476578411405296,0.03665987780040733,0.024439918533604887,0.020366598778004074,0.024439918533604887,0.014256619144602852,0.02240325865580448,0.018329938900203666,0.0,0.0,0.02240325865580448,0.02240325865580448,0.028513238289205704,0.020366598778004074,0.0,0.0,0.0,0.026476578411405296,0.020366598778004074,0.024439918533604887,0.028513238289205704,0.0,0.028513238289205704,0.0,0.028513238289205704,0.034623217922606926,0.02240325865580448,0.028513238289205704,0.0,0.032586558044806514
S7_D5 hbo,0.024475524475524476,0.015151515151515152,0.023310023310023312,0.024475524475524476,0.024475524475524476,0.024475524475524476,0.009324009324009324,0.024475524475524476,0.024475524475524476,0.01282051282051282,0.024475524475524476,0.024475524475524476,0.024475524475524476,0.009324009324009324,0.018648018648018648,0.019813519813519812,0.024475524475524476,0.022144522144522144,0.024475524475524476,0.01282051282051282,0.023310023310023312,0.019813519813519812,0.024475524475524476,0.018648018648018648,0.024475524475524476,0.024475524475524476,0.024475524475524476,0.02097902097902098,0.024475524475524476,0.023310023310023312,0.0,0.0,0.024475524475524476,0.024475524475524476,0.023310023310023312,0.024475524475524476,0.01282051282051282,0.0034965034965034965,0.008158508158508158,0.024475524475524476,0.024475524475524476,0.024475524475524476,0.024475524475524476,0.01048951048951049,0.023310023310023312,0.0,0.023310023310023312,0.01282051282051282,0.024475524475524476,0.023310023310023312,0.0,0.022144522144522144
S7_D7 hbo,0.02442528735632184,0.01293103448275862,0.022988505747126436,0.02442528735632184,0.02442528735632184,0.02442528735632184,0.005747126436781609,0.02442528735632184,0.02442528735632184,0.015804597701149427,0.02442528735632184,0.02442528735632184,0.02442528735632184,0.005747126436781609,0.017241379310344827,0.02442528735632184,0.02442528735632184,0.021551724137931036,0.02442528735632184,0.015804597701149427,0.022988505747126436,0.022988505747126436,0.02442528735632184,0.022988505747126436,0.02442528735632184,0.02442528735632184,0.02442528735632184,0.020114942528735632,0.02442528735632184,0.022988505747126436,0.0,0.0,0.02442528735632184,0.02442528735632184,0.02442528735632184,0.02442528735632184,0.010057471264367816,0.0,0.004310344827586207,0.02442528735632184,0.02442528735632184,0.02442528735632184,0.02442528735632184,0.007183908045977011,0.02442528735632184,0.0,0.02442528735632184,0.015804597701149427,0.02442528735632184,0.02442528735632184,0.0,0.02442528735632184
S7_D8 hbo,0.023529411764705882,0.013903743315508022,0.0213903743315508,0.023529411764705882,0.025668449197860963,0.02459893048128342,0.008556149732620321,0.022459893048128343,0.025668449197860963,0.016042780748663103,0.026737967914438502,0.023529411764705882,0.026737967914438502,0.008556149732620321,0.017112299465240642,0.01818181818181818,0.02459893048128342,0.020320855614973262,0.022459893048128343,0.016042780748663103,0.0213903743315508,0.01818181818181818,0.025668449197860963,0.0213903743315508,0.02459893048128342,0.022459893048128343,0.02459893048128342,0.019251336898395723,0.023529411764705882,0.0213903743315508,0.0,0.0,0.023529411764705882,0.023529411764705882,0.025668449197860963,0.022459893048128343,0.011764705882352941,0.0032085561497326204,0.0074866310160427805,0.025668449197860963,0.022459893048128343,0.02459893048128342,0.026737967914438502,0.009625668449197862,0.025668449197860963,0.0,0.025668449197860963,0.016042780748663103,0.023529411764705882,0.025668449197860963,0.0,0.02459893048128342
S8_D6 hbo,0.02275960170697013,0.00995732574679943,0.01991465149359886,0.02275960170697013,0.025604551920341393,0.02418207681365576,0.002844950213371266,0.021337126600284494,0.025604551920341393,0.02844950213371266,0.02702702702702703,0.02275960170697013,0.02702702702702703,0.002844950213371266,0.01422475106685633,0.021337126600284494,0.02418207681365576,0.01849217638691323,0.021337126600284494,0.025604551920341393,0.01991465149359886,0.01991465149359886,0.025604551920341393,0.032716927453769556,0.02418207681365576,0.021337126600284494,0.02418207681365576,0.017069701280227598,0.02275960170697013,0.01991465149359886,0.0,0.0,0.02275960170697013,0.02275960170697013,0.02702702702702703,0.021337126600284494,0.007112375533428165,0.0,0.001422475106685633,0.025604551920341393,0.021337126600284494,0.02418207681365576,0.02702702702702703,0.004267425320056899,0.02702702702702703,0.0,0.02702702702702703,0.025604551920341393,0.02275960170697013,0.02702702702702703,0.0,0.029871977240398292
S8_D8 hbo,0.023835319609967497,0.014084507042253521,0.021668472372697724,0.023835319609967497,0.02600216684723727,0.024918743228602384,0.00866738894907909,0.02275189599133261,0.02600216684723727,0.015167930660888408,0.02600216684723727,0.023835319609967497,0.02600216684723727,0.00866738894907909,0.01733477789815818,0.018418201516793065,0.024918743228602384,0.020585048754062838,0.02275189599133261,0.015167930660888408,0.021668472372697724,0.018418201516793065,0.02600216684723727,0.020585048754062838,0.024918743228602384,0.02275189599133261,0.024918743228602384,0.01950162513542795,0.023835319609967497,0.021668472372697724,0.0,0.0,0.023835319609967497,0.023835319609967497,0.024918743228602384,0.02275189599133261,0.011917659804983749,0.0032502708559046588,0.007583965330444204,0.02600216684723727,0.02275189599133261,0.024918743228602384,0.02600216684723727,0.009750812567713976,0.024918743228602384,0.0,0.024918743228602384,0.015167930660888408,0.023835319609967497,0.024918743228602384,0.0,0.023835319609967497
S8_D15 hbo,0.024830699774266364,0.014672686230248307,0.022573363431151242,0.024830699774266364,0.024830699774266364,0.024830699774266364,0.009029345372460496,0.023702031602708805,0.024830699774266364,0.013544018058690745,0.024830699774266364,0.024830699774266364,0.024830699774266364,0.009029345372460496,0.01805869074492099,0.019187358916478554,0.024830699774266364,0.02144469525959368,0.023702031602708805,0.013544018058690745,0.022573363431151242,0.019187358916478554,0.024830699774266364,0.019187358916478554,0.024830699774266364,0.023702031602708805,0.024830699774266364,0.020316027088036117,0.024830699774266364,0.022573363431151242,0.0,0.0,0.024830699774266364,0.024830699774266364,0.023702031602708805,0.023702031602708805,0.012415349887133182,0.003386004514672686,0.007900677200902935,0.024830699774266364,0.023702031602708805,0.024830699774266364,0.024830699774266364,0.010158013544018058,0.023702031602708805,0.0,0.023702031602708805,0.013544018058690745,0.024830699774266364,0.023702031602708805,0.0,0.022573363431151242
S9_D2 hbo,0.023835319609967497,0.014084507042253521,0.021668472372697724,0.023835319609967497,0.02600216684723727,0.024918743228602384,0.00866738894907909,0.02275189599133261,0.02600216684723727,0.015167930660888408,0.02600216684723727,0.023835319609967497,0.02600216684723727,0.00866738894907909,0.01733477789815818,0.018418201516793065,0.024918743228602384,0.020585048754062838,0.02275189599133261,0.015167930660888408,0.021668472372697724,0.018418201516793065,0.02600216684723727,0.020585048754062838,0.024918743228602384,0.02275189599133261,0.024918743228602384,0.01950162513542795,0.023835319609967497,0.021668472372697724,0.0,0.0,0.023835319609967497,0.023835319609967497,0.024918743228602384,0.02275189599133261,0.011917659804983749,0.0032502708559046588,0.007583965330444204,0.02600216684723727,0.02275189599133261,0.024918743228602384,0.02600216684723727,0.009750812567713976,0.024918743228602384,0.0,0.024918743228602384,0.015167930660888408,0.023835319609967497,0.024918743228602384,0.0,0.023835319609967497
S9_D9 hbo,0.024173027989821884,0.01653944020356234,0.024173027989821884,0.024173027989821884,0.024173027989821884,0.024173027989821884,0.010178117048346057,0.024173027989821884,0.024173027989821884,0.011450381679389313,0.024173027989821884,0.024173027989821884,0.024173027989821884,0.010178117048346057,0.020356234096692113,0.019083969465648856,0.024173027989821884,0.024173027989821884,0.024173027989821884,0.011450381679389313,0.024173027989821884,0.020356234096692113,0.024173027989821884,0.017811704834605598,0.024173027989821884,0.024173027989821884,0.024173027989821884,0.022900763358778626,0.024173027989821884,0.024173027989821884,0.0,0.0,0.024173027989821884,0.024173027989821884,0.022900763358778626,0.024173027989821884,0.013994910941475827,0.003816793893129771,0.008905852417302799,0.024173027989821884,0.024173027989821884,0.024173027989821884,0.024173027989821884,0.011450381679389313,0.022900763358778626,0.0,0.022900763358778626,0.011450381679389313,0.024173027989821884,0.022900763358778626,0.0,0.021628498727735368
S9_D11 hbo,0.024255788313120176,0.014332965821389196,0.022050716648291068,0.024255788313120176,0.025358324145534728,0.025358324145534728,0.008820286659316428,0.023153252480705624,0.025358324145534728,0.014332965821389196,0.025358324145534728,0.024255788313120176,0.025358324145534728,0.008820286659316428,0.017640573318632856,0.018743109151047408,0.025358324145534728,0.020948180815876516,0.023153252480705624,0.014332965821389196,0.022050716648291068,0.018743109151047408,0.025358324145534728,0.019845644983461964,0.025358324145534728,0.023153252480705624,0.025358324145534728,0.019845644983461964,0.024255788313120176,0.022050716648291068,0.0,0.0,0.024255788313120176,0.024255788313120176,0.024255788313120176,0.023153252480705624,0.012127894156560088,0.0033076074972436605,0.007717750826901874,0.025358324145534728,0.023153252480705624,0.025358324145534728,0.025358324145534728,0.009922822491730982,0.024255788313120176,0.0,0.024255788313120176,0.014332965821389196,0.024255788313120176,0.024255788313120176,0.0,0.023153252480705624
S10_D9 hbo,0.024475524475524476,0.015151515151515152,0.023310023310023312,0.024475524475524476,0.024475524475524476,0.024475524475524476,0.009324009324009324,0.024475524475524476,0.024475524475524476,0.01282051282051282,0.024475524475524476,0.024475524475524476,0.024475524475524476,0.009324009324009324,0.018648018648018648,0.019813519813519812,0.024475524475524476,0.022144522144522144,0.024475524475524476,0.01282051282051282,0.023310023310023312,0.019813519813519812,0.024475524475524476,0.018648018648018648,0.024475524475524476,0.024475524475524476,0.024475524475524476,0.02097902097902098,0.024475524475524476,0.023310023310023312,0.0,0.0,0.024475524475524476,0.024475524475524476,0.023310023310023312,0.024475524475524476,0.01282051282051282,0.0034965034965034965,0.008158508158508158,0.024475524475524476,0.024475524475524476,0.024475524475524476,0.024475524475524476,0.01048951048951049,0.023310023310023312,0.0,0.023310023310023312,0.01282051282051282,0.024475524475524476,0.023310023310023312,0.0,0.022144522144522144
S10_D10 hbo,0.0,0.0,0.0,0.0,0.0,0.0,0.0,0.0,0.0,0.0,0.0,0.0,0.0,0.0,0.0,0.0,0.0,0.0,0.0,0.0,0.0,0.0,0.0,0.0,0.0,0.0,0.0,0.0,0.0,0.0,0.0,0.0,0.0,0.0,0.0,0.0,0.0,0.0,0.0,0.0,0.0,0.0,0.0,0.0,0.0,0.0,0.0,0.0,0.0,0.0,0.0,0.0
S10_D12 hbo,0.0,0.0,0.0,0.0,0.0,0.0,0.0,0.0,0.0,0.0,0.0,0.0,0.0,0.0,0.0,0.0,0.0,0.0,0.0,0.0,0.0,0.0,0.0,0.0,0.0,0.0,0.0,0.0,0.0,0.0,0.0,0.0,0.0,0.0,0.0,0.0,0.0,0.0,0.0,0.0,0.0,0.0,0.0,0.0,0.0,0.0,0.0,0.0,0.0,0.0,0.0,0.0
S11_D9 hbo,0.024255788313120176,0.014332965821389196,0.022050716648291068,0.024255788313120176,0.025358324145534728,0.025358324145534728,0.008820286659316428,0.023153252480705624,0.025358324145534728,0.014332965821389196,0.025358324145534728,0.024255788313120176,0.025358324145534728,0.008820286659316428,0.017640573318632856,0.018743109151047408,0.025358324145534728,0.020948180815876516,0.023153252480705624,0.014332965821389196,0.022050716648291068,0.018743109151047408,0.025358324145534728,0.019845644983461964,0.025358324145534728,0.023153252480705624,0.025358324145534728,0.019845644983461964,0.024255788313120176,0.022050716648291068,0.0,0.0,0.024255788313120176,0.024255788313120176,0.024255788313120176,0.023153252480705624,0.012127894156560088,0.0033076074972436605,0.007717750826901874,0.025358324145534728,0.023153252480705624,0.025358324145534728,0.025358324145534728,0.009922822491730982,0.024255788313120176,0.0,0.024255788313120176,0.014332965821389196,0.024255788313120176,0.024255788313120176,0.0,0.023153252480705624
S11_D11 hbo,0.024255788313120176,0.014332965821389196,0.022050716648291068,0.024255788313120176,0.025358324145534728,0.025358324145534728,0.008820286659316428,0.023153252480705624,0.025358324145534728,0.014332965821389196,0.025358324145534728,0.024255788313120176,0.025358324145534728,0.008820286659316428,0.017640573318632856,0.018743109151047408,0.025358324145534728,0.020948180815876516,0.023153252480705624,0.014332965821389196,0.022050716648291068,0.018743109151047408,0.025358324145534728,0.019845644983461964,0.025358324145534728,0.023153252480705624,0.025358324145534728,0.019845644983461964,0.024255788313120176,0.022050716648291068,0.0,0.0,0.024255788313120176,0.024255788313120176,0.024255788313120176,0.023153252480705624,0.012127894156560088,0.0033076074972436605,0.007717750826901874,0.025358324145534728,0.023153252480705624,0.025358324145534728,0.025358324145534728,0.009922822491730982,0.024255788313120176,0.0,0.024255788313120176,0.014332965821389196,0.024255788313120176,0.024255788313120176,0.0,0.023153252480705624
S11_D12 hbo,0.02320185614849188,0.012761020881670533,0.02088167053364269,0.02320185614849188,0.025522041763341066,0.024361948955916472,0.0069605568445475635,0.022041763341067284,0.025522041763341066,0.018561484918793503,0.02668213457076566,0.02320185614849188,0.02668213457076566,0.0069605568445475635,0.016241299303944315,0.019721577726218097,0.024361948955916472,0.019721577726218097,0.022041763341067284,0.018561484918793503,0.02088167053364269,0.019721577726218097,0.025522041763341066,0.024361948955916472,0.024361948955916472,0.022041763341067284,0.024361948955916472,0.018561484918793503,0.02320185614849188,0.02088167053364269,0.0,0.0,0.02320185614849188,0.02320185614849188,0.02668213457076566,0.022041763341067284,0.010440835266821345,0.001160092807424594,0.00580046403712297,0.025522041763341066,0.022041763341067284,0.024361948955916472,0.02668213457076566,0.008120649651972157,0.02668213457076566,0.0,0.02668213457076566,0.018561484918793503,0.02320185614849188,0.02668213457076566,0.0,0.027842227378190254
S11_D13 hbo,0.024830699774266364,0.014672686230248307,0.022573363431151242,0.024830699774266364,0.024830699774266364,0.024830699774266364,0.009029345372460496,0.023702031602708805,0.024830699774266364,0.013544018058690745,0.024830699774266364,0.024830699774266364,0.024830699774266364,0.009029345372460496,0.01805869074492099,0.019187358916478554,0.024830699774266364,0.02144469525959368,0.023702031602708805,0.013544018058690745,0.022573363431151242,0.019187358916478554,0.024830699774266364,0.019187358916478554,0.024830699774266364,0.023702031602708805,0.024830699774266364,0.020316027088036117,0.024830699774266364,0.022573363431151242,0.0,0.0,0.024830699774266364,0.024830699774266364,0.023702031602708805,0.023702031602708805,0.012415349887133182,0.003386004514672686,0.007900677200902935,0.024830699774266364,0.023702031602708805,0.024830699774266364,0.024830699774266364,0.010158013544018058,0.023702031602708805,0.0,0.023702031602708805,0.013544018058690745,0.024830699774266364,0.023702031602708805,0.0,0.022573363431151242
S12_D10 hbo,0.02390438247011952,0.02390438247011952,0.02390438247011952,0.02390438247011952,0.02390438247011952,0.02390438247011952,0.01593625498007968,0.02390438247011952,0.02390438247011952,0.00398406374501992,0.02390438247011952,0.02390438247011952,0.02390438247011952,0.01593625498007968,0.02390438247011952,0.01593625498007968,0.02390438247011952,0.02390438247011952,0.02390438247011952,0.00398406374501992,0.02390438247011952,0.017928286852589643,0.02390438247011952,0.013944223107569721,0.02390438247011952,0.02390438247011952,0.02390438247011952,0.02390438247011952,0.02390438247011952,0.02390438247011952,0.0,0.0,0.02390438247011952,0.02390438247011952,0.021912350597609563,0.02390438247011952,0.021912350597609563,0.00597609561752988,0.013944223107569721,0.02390438247011952,0.02390438247011952,0.02390438247011952,0.02390438247011952,0.017928286852589643,0.021912350597609563,0.0,0.021912350597609563,0.00398406374501992,0.02390438247011952,0.021912350597609563,0.0,0.0199203187250996
S12_D12 hbo,0.024691358024691357,0.024691358024691357,0.024691358024691357,0.024691358024691357,0.024691358024691357,0.024691358024691357,0.024691358024691357,0.024691358024691357,0.024691358024691357,0.0,0.024691358024691357,0.024691358024691357,0.024691358024691357,0.024691358024691357,0.024691358024691357,0.0,0.024691358024691357,0.024691358024691357,0.024691358024691357,0.0,0.024691358024691357,0.006172839506172839,0.024691358024691357,0.0,0.024691358024691357,0.024691358024691357,0.024691358024691357,0.024691358024691357,0.024691358024691357,0.024691358024691357,0.0,0.0,0.024691358024691357,0.024691358024691357,0.018518518518518517,0.024691358024691357,0.024691358024691357,0.018518518518518517,0.024691358024691357,0.024691358024691357,0.024691358024691357,0.024691358024691357,0.024691358024691357,0.024691358024691357,0.018518518518518517,0.0,0.018518518518518517,0.0,0.024691358024691357,0.018518518518518517,0.0,0.012345679012345678
S12_D14 hbo,0.023809523809523808,0.023809523809523808,0.023809523809523808,0.023809523809523808,0.023809523809523808,0.023809523809523808,0.023809523809523808,0.023809523809523808,0.023809523809523808,0.0,0.023809523809523808,0.023809523809523808,0.023809523809523808,0.023809523809523808,0.023809523809523808,0.011904761904761904,0.023809523809523808,0.023809523809523808,0.023809523809523808,0.0,0.023809523809523808,0.01488095238095238,0.023809523809523808,0.008928571428571428,0.023809523809523808,0.023809523809523808,0.023809523809523808,0.023809523809523808,0.023809523809523808,0.023809523809523808,0.0,0.0,0.023809523809523808,0.023809523809523808,0.020833333333333332,0.023809523809523808,0.023809523809523808,0.008928571428571428,0.020833333333333332,0.023809523809523808,0.023809523809523808,0.023809523809523808,0.023809523809523808,0.023809523809523808,0.020833333333333332,0.0,0.020833333333333332,0.0,0.023809523809523808,0.020833333333333332,0.0,0.017857142857142856
S13_D6 hbo,0.023529411764705882,0.013903743315508022,0.0213903743315508,0.023529411764705882,0.025668449197860963,0.02459893048128342,0.008556149732620321,0.022459893048128343,0.025668449197860963,0.016042780748663103,0.026737967914438502,0.023529411764705882,0.026737967914438502,0.008556149732620321,0.017112299465240642,0.01818181818181818,0.02459893048128342,0.020320855614973262,0.022459893048128343,0.016042780748663103,0.0213903743315508,0.01818181818181818,0.025668449197860963,0.0213903743315508,0.02459893048128342,0.022459893048128343,0.02459893048128342,0.019251336898395723,0.023529411764705882,0.0213903743315508,0.0,0.0,0.023529411764705882,0.023529411764705882,0.025668449197860963,0.022459893048128343,0.011764705882352941,0.0032085561497326204,0.0074866310160427805,0.025668449197860963,0.022459893048128343,0.02459893048128342,0.026737967914438502,0.009625668449197862,0.025668449197860963,0.0,0.025668449197860963,0.016042780748663103,0.023529411764705882,0.025668449197860963,0.0,0.02459893048128342
S13_D11 hbo,0.024830699774266364,0.014672686230248307,0.022573363431151242,0.024830699774266364,0.024830699774266364,0.024830699774266364,0.009029345372460496,0.023702031602708805,0.024830699774266364,0.013544018058690745,0.024830699774266364,0.024830699774266364,0.024830699774266364,0.009029345372460496,0.01805869074492099,0.019187358916478554,0.024830699774266364,0.02144469525959368,0.023702031602708805,0.013544018058690745,0.022573363431151242,0.019187358916478554,0.024830699774266364,0.019187358916478554,0.024830699774266364,0.023702031602708805,0.024830699774266364,0.020316027088036117,0.024830699774266364,0.022573363431151242,0.0,0.0,0.024830699774266364,0.024830699774266364,0.023702031602708805,0.023702031602708805,0.012415349887133182,0.003386004514672686,0.007900677200902935,0.024830699774266364,0.023702031602708805,0.024830699774266364,0.024830699774266364,0.010158013544018058,0.023702031602708805,0.0,0.023702031602708805,0.013544018058690745,0.024830699774266364,0.023702031602708805,0.0,0.022573363431151242
S13_D13 hbo,0.023702031602708805,0.013544018058690745,0.02144469525959368,0.023702031602708805,0.025959367945823927,0.024830699774266364,0.007900677200902935,0.022573363431151242,0.025959367945823927,0.01580135440180587,0.025959367945823927,0.023702031602708805,0.025959367945823927,0.007900677200902935,0.016930022573363433,0.019187358916478554,0.024830699774266364,0.020316027088036117,0.022573363431151242,0.01580135440180587,0.02144469525959368,0.019187358916478554,0.025959367945823927,0.02144469525959368,0.024830699774266364,0.022573363431151242,0.024830699774266364,0.019187358916478554,0.023702031602708805,0.02144469525959368,0.0,0.0,0.023702031602708805,0.023702031602708805,0.025959367945823927,0.022573363431151242,0.011286681715575621,0.002257336343115124,0.006772009029345372,0.025959367945823927,0.022573363431151242,0.024830699774266364,0.025959367945823927,0.009029345372460496,0.025959367945823927,0.0,0.025959367945823927,0.01580135440180587,0.023702031602708805,0.025959367945823927,0.0,0.024830699774266364
S13_D15 hbo,0.023255813953488372,0.013289036544850499,0.021040974529346623,0.023255813953488372,0.02547065337763012,0.024363233665559248,0.007751937984496124,0.0221483942414175,0.02547065337763012,0.017718715393133997,0.026578073089700997,0.023255813953488372,0.026578073089700997,0.007751937984496124,0.016611295681063124,0.018826135105204873,0.024363233665559248,0.019933554817275746,0.0221483942414175,0.017718715393133997,0.021040974529346623,0.018826135105204873,0.02547065337763012,0.023255813953488372,0.024363233665559248,0.0221483942414175,0.024363233665559248,0.018826135105204873,0.023255813953488372,0.021040974529346623,0.0,0.0,0.023255813953488372,0.023255813953488372,0.026578073089700997,0.0221483942414175,0.01107419712070875,0.0022148394241417496,0.006644518272425249,0.02547065337763012,0.0221483942414175,0.024363233665559248,0.026578073089700997,0.008859357696566999,0.026578073089700997,0.0,0.026578073089700997,0.017718715393133997,0.023255813953488372,0.026578073089700997,0.0,0.026578073089700997
S14_D12 hbo,0.023980815347721823,0.023980815347721823,0.023980815347721823,0.023980815347721823,0.023980815347721823,0.023980815347721823,0.019184652278177457,0.023980815347721823,0.023980815347721823,0.0,0.023980815347721823,0.023980815347721823,0.023980815347721823,0.019184652278177457,0.023980815347721823,0.014388489208633094,0.023980815347721823,0.023980815347721823,0.023980815347721823,0.0,0.023980815347721823,0.016786570743405275,0.023980815347721823,0.011990407673860911,0.023980815347721823,0.023980815347721823,0.023980815347721823,0.023980815347721823,0.023980815347721823,0.023980815347721823,0.0,0.0,0.023980815347721823,0.023980815347721823,0.02158273381294964,0.023980815347721823,0.023980815347721823,0.007194244604316547,0.016786570743405275,0.023980815347721823,0.023980815347721823,0.023980815347721823,0.023980815347721823,0.02158273381294964,0.02158273381294964,0.0,0.02158273381294964,0.0,0.023980815347721823,0.02158273381294964,0.0,0.019184652278177457
S14_D13 hbo,0.02320185614849188,0.012761020881670533,0.02088167053364269,0.02320185614849188,0.025522041763341066,0.024361948955916472,0.0069605568445475635,0.022041763341067284,0.025522041763341066,0.018561484918793503,0.02668213457076566,0.02320185614849188,0.02668213457076566,0.0069605568445475635,0.016241299303944315,0.019721577726218097,0.024361948955916472,0.019721577726218097,0.022041763341067284,0.018561484918793503,0.02088167053364269,0.019721577726218097,0.025522041763341066,0.024361948955916472,0.024361948955916472,0.022041763341067284,0.024361948955916472,0.018561484918793503,0.02320185614849188,0.02088167053364269,0.0,0.0,0.02320185614849188,0.02320185614849188,0.02668213457076566,0.022041763341067284,0.010440835266821345,0.001160092807424594,0.00580046403712297,0.025522041763341066,0.022041763341067284,0.024361948955916472,0.02668213457076566,0.008120649651972157,0.02668213457076566,0.0,0.02668213457076566,0.018561484918793503,0.02320185614849188,0.02668213457076566,0.0,0.027842227378190254
S14_D14 hbo,0.0,0.0,0.0,0.0,0.0,0.0,0.0,0.0,0.0,0.0,0.0,0.0,0.0,0.0,0.0,0.0,0.0,0.0,0.0,0.0,0.0,0.0,0.0,0.0,0.0,0.0,0.0,0.0,0.0,0.0,0.0,0.0,0.0,0.0,0.0,0.0,0.0,0.0,0.0,0.0,0.0,0.0,0.0,0.0,0.0,0.0,0.0,0.0,0.0,0.0,0.0,0.0
S14_D16 hbo,0.02320185614849188,0.012761020881670533,0.02088167053364269,0.02320185614849188,0.025522041763341066,0.024361948955916472,0.0069605568445475635,0.022041763341067284,0.025522041763341066,0.018561484918793503,0.02668213457076566,0.02320185614849188,0.02668213457076566,0.0069605568445475635,0.016241299303944315,0.019721577726218097,0.024361948955916472,0.019721577726218097,0.022041763341067284,0.018561484918793503,0.02088167053364269,0.019721577726218097,0.025522041763341066,0.024361948955916472,0.024361948955916472,0.022041763341067284,0.024361948955916472,0.018561484918793503,0.02320185614849188,0.02088167053364269,0.0,0.0,0.02320185614849188,0.02320185614849188,0.02668213457076566,0.022041763341067284,0.010440835266821345,0.001160092807424594,0.00580046403712297,0.025522041763341066,0.022041763341067284,0.024361948955916472,0.02668213457076566,0.008120649651972157,0.02668213457076566,0.0,0.02668213457076566,0.018561484918793503,0.02320185614849188,0.02668213457076566,0.0,0.027842227378190254
S15_D13 hbo,0.02240325865580448,0.004073319755600814,0.018329938900203666,0.02240325865580448,0.026476578411405296,0.024439918533604887,0.0,0.020366598778004074,0.026476578411405296,0.03665987780040733,0.028513238289205704,0.02240325865580448,0.028513238289205704,0.0,0.010183299389002037,0.020366598778004074,0.024439918533604887,0.016293279022403257,0.020366598778004074,0.034623217922606926,0.018329938900203666,0.018329938900203666,0.026476578411405296,0.03665987780040733,0.024439918533604887,0.020366598778004074,0.024439918533604887,0.014256619144602852,0.02240325865580448,0.018329938900203666,0.0,0.0,0.02240325865580448,0.02240325865580448,0.028513238289205704,0.020366598778004074,0.0,0.0,0.0,0.026476578411405296,0.020366598778004074,0.024439918533604887,0.028513238289205704,0.0,0.028513238289205704,0.0,0.028513238289205704,0.034623217922606926,0.02240325865580448,0.028513238289205704,0.0,0.032586558044806514
S15_D15 hbo,0.02413793103448276,0.013793103448275862,0.021839080459770115,0.02413793103448276,0.02528735632183908,0.02528735632183908,0.008045977011494253,0.022988505747126436,0.02528735632183908,0.014942528735632184,0.02528735632183908,0.02413793103448276,0.02528735632183908,0.008045977011494253,0.017241379310344827,0.01954022988505747,0.02528735632183908,0.020689655172413793,0.022988505747126436,0.014942528735632184,0.021839080459770115,0.01954022988505747,0.02528735632183908,0.020689655172413793,0.02528735632183908,0.022988505747126436,0.02528735632183908,0.01954022988505747,0.02413793103448276,0.021839080459770115,0.0,0.0,0.02413793103448276,0.02413793103448276,0.02528735632183908,0.022988505747126436,0.011494252873563218,0.0022988505747126436,0.006896551724137931,0.02528735632183908,0.022988505747126436,0.02528735632183908,0.02528735632183908,0.009195402298850575,0.02528735632183908,0.0,0.02528735632183908,0.014942528735632184,0.02413793103448276,0.02528735632183908,0.0,0.02413793103448276
S15_D16 hbo,0.02320185614849188,0.012761020881670533,0.02088167053364269,0.02320185614849188,0.025522041763341066,0.024361948955916472,0.0069605568445475635,0.022041763341067284,0.025522041763341066,0.018561484918793503,0.02668213457076566,0.02320185614849188,0.02668213457076566,0.0069605568445475635,0.016241299303944315,0.019721577726218097,0.024361948955916472,0.019721577726218097,0.022041763341067284,0.018561484918793503,0.02088167053364269,0.019721577726218097,0.025522041763341066,0.024361948955916472,0.024361948955916472,0.022041763341067284,0.024361948955916472,0.018561484918793503,0.02320185614849188,0.02088167053364269,0.0,0.0,0.02320185614849188,0.02320185614849188,0.02668213457076566,0.022041763341067284,0.010440835266821345,0.001160092807424594,0.00580046403712297,0.025522041763341066,0.022041763341067284,0.024361948955916472,0.02668213457076566,0.008120649651972157,0.02668213457076566,0.0,0.02668213457076566,0.018561484918793503,0.02320185614849188,0.02668213457076566,0.0,0.027842227378190254
S16_D14 hbo,0.0,0.0,0.0,0.0,0.0,0.0,0.0,0.0,0.0,0.0,0.0,0.0,0.0,0.0,0.0,0.0,0.0,0.0,0.0,0.0,0.0,0.0,0.0,0.0,0.0,0.0,0.0,0.0,0.0,0.0,0.0,0.0,0.0,0.0,0.0,0.0,0.0,0.0,0.0,0.0,0.0,0.0,0.0,0.0,0.0,0.0,0.0,0.0,0.0,0.0,0.0,0.0
S16_D16 hbo,0.022919179734620022,0.012062726176115802,0.020506634499396863,0.022919179734620022,0.025331724969843185,0.024125452352231604,0.006031363088057901,0.021712907117008445,0.025331724969843185,0.021712907117008445,0.026537997587454766,0.022919179734620022,0.026537997587454766,0.006031363088057901,0.015681544028950542,0.020506634499396863,0.024125452352231604,0.019300361881785282,0.021712907117008445,0.021712907117008445,0.020506634499396863,0.020506634499396863,0.025331724969843185,0.027744270205066344,0.024125452352231604,0.021712907117008445,0.024125452352231604,0.018094089264173704,0.022919179734620022,0.020506634499396863,0.0,0.0,0.022919179734620022,0.022919179734620022,0.026537997587454766,0.021712907117008445,0.009650180940892641,0.0,0.0048250904704463205,0.025331724969843185,0.021712907117008445,0.024125452352231604,0.026537997587454766,0.007237635705669481,0.026537997587454766,0.0,0.026537997587454766,0.021712907117008445,0.022919179734620022,0.026537997587454766,0.0,0.028950542822677925
