,S1_D1 hbo,S1_D3 hbo,S2_D1 hbo,S2_D2 hbo,S2_D4 hbo,S3_D1 hbo,S3_D3 hbo,S3_D4 hbo,S3_D5 hbo,S4_D2 hbo,S4_D4 hbo,S4_D6 hbo,S4_D11 hbo,S5_D3 hbo,S5_D5 hbo,S5_D7 hbo,S6_D4 hbo,S6_D5 hbo,S6_D6 hbo,S6_D8 hbo,S7_D5 hbo,S7_D7 hbo,S7_D8 hbo,S8_D6 hbo,S8_D8 hbo,S8_D15 hbo,S9_D2 hbo,S9_D9 hbo,S9_D11 hbo,S10_D9 hbo,S10_D10 hbo,S10_D12 hbo,S11_D9 hbo,S11_D11 hbo,S11_D12 hbo,S11_D13 hbo,S12_D10 hbo,S12_D12 hbo,S12_D14 hbo,S13_D6 hbo,S13_D11 hbo,S13_D13 hbo,S13_D15 hbo,S14_D12 hbo,S14_D13 hbo,S14_D14 hbo,S14_D16 hbo,S15_D13 hbo,S15_D15 hbo,S15_D16 hbo,S16_D14 hbo,S16_D16 hbo
S1_D1 hbo,0.0,0.0,0.0,0.0,0.0,0.0,0.0,0.0,0.0,0.0,0.0,0.0,0.0,0.0,0.0,0.0,0.0,0.0,0.0,0.0,0.0,0.0,0.0,0.0,0.0,0.0,0.0,0.0,0.0,0.0,0.0,0.0,0.0,0.0,0.0,0.0,0.0,0.0,0.0,0.0,0.0,0.0,0.0,0.0,0.0,0.0,0.0,0.0,0.0,0.0,0.0,0.0
S1_D3 hbo,0.0,0.0,0.0,0.0,0.0,0.0,0.0,0.0,0.0,0.0,0.0,0.0,0.0,0.0,0.0,0.0,0.0,0.0,0.0,0.0,0.0,0.0,0.0,0.0,0.0,0.0,0.0,0.0,0.0,0.0,0.0,0.0,0.0,0.0,0.0,0.0,0.0,0.0,0.0,0.0,0.0,0.0,0.0,0.0,0.0,0.0,0.0,0.0,0.0,0.0,0.0,0.0
S2_D1 hbo,0.0,0.0,0.0,0.0,0.0,0.0,0.0,0.0,0.0,0.0,0.0,0.0,0.0,0.0,0.0,0.0,0.0,0.0,0.0,0.0,0.0,0.0,0.0,0.0,0.0,0.0,0.0,0.0,0.0,0.0,0.0,0.0,0.0,0.0,0.0,0.0,0.0,0.0,0.0,0.0,0.0,0.0,0.0,0.0,0.0,0.0,0.0,0.0,0.0,0.0,0.0,0.0
S2_D2 hbo,0.0,0.0,0.0,0.0,0.0,0.0,0.0,0.0,0.0,0.0,0.0,0.0,0.0,0.0,0.0,0.0,0.0,0.0,0.0,0.0,0.0,0.0,0.0,0.0,0.0,0.0,0.0,0.0,0.0,0.0,0.0,0.0,0.0,0.0,0.0,0.0,0.0,0.0,0.0,0.0,0.0,0.0,0.0,0.0,0.0,0.0,0.0,0.0,0.0,0.0,0.0,0.0
S2_D4 hbo,0.0,0.0,0.0,0.0,0.03389830508474576,0.03954802259887006,0.03954802259887006,0.0,0.0,0.03389830508474576,0.03389830508474576,0.03954802259887006,0.0,0.03954802259887006,0.03954802259887006,0.03954802259887006,0.03389830508474576,0.0,0.03954802259887006,0.022598870056497175,0.0,0.02824858757062147,0.0,0.03389830508474576,0.02824858757062147,0.02824858757062147,0.0,0.01694915254237288,0.03389830508474576,0.0,0.03954802259887006,0.03954802259887006,0.0,0.0,0.0,0.03389830508474576,0.03954802259887006,0.0,0.022598870056497175,0.0,0.03954802259887006,0.03954802259887006,0.0,0.03954802259887006,0.0,0.03954802259887006,0.0,0.0,0.0,0.022598870056497175,0.03954802259887006,0.0
S3_D1 hbo,0.0,0.0,0.0,0.0,0.028688524590163935,0.04918032786885246,0.045081967213114756,0.0,0.0,0.028688524590163935,0.028688524590163935,0.036885245901639344,0.0,0.040983606557377046,0.036885245901639344,0.045081967213114756,0.028688524590163935,0.0,0.03278688524590164,0.020491803278688523,0.0,0.02459016393442623,0.0,0.028688524590163935,0.02459016393442623,0.02459016393442623,0.0,0.012295081967213115,0.028688524590163935,0.0,0.04918032786885246,0.05327868852459016,0.0,0.0,0.0,0.028688524590163935,0.04918032786885246,0.0,0.02459016393442623,0.0,0.03278688524590164,0.036885245901639344,0.0,0.04918032786885246,0.0,0.040983606557377046,0.0,0.0,0.0,0.020491803278688523,0.04918032786885246,0.0
S3_D3 hbo,0.0,0.0,0.0,0.0,0.027131782945736434,0.050387596899224806,0.046511627906976744,0.0,0.0,0.031007751937984496,0.031007751937984496,0.03875968992248062,0.0,0.04263565891472868,0.03875968992248062,0.046511627906976744,0.031007751937984496,0.0,0.03488372093023256,0.01937984496124031,0.0,0.023255813953488372,0.0,0.031007751937984496,0.023255813953488372,0.023255813953488372,0.0,0.011627906976744186,0.027131782945736434,0.0,0.050387596899224806,0.050387596899224806,0.0,0.0,0.0,0.031007751937984496,0.04263565891472868,0.0,0.023255813953488372,0.0,0.03488372093023256,0.03875968992248062,0.0,0.04263565891472868,0.0,0.03875968992248062,0.0,0.0,0.0,0.01937984496124031,0.050387596899224806,0.0
S3_D4 hbo,0.0,0.0,0.0,0.0,0.0,0.0,0.0,0.0,0.0,0.0,0.0,0.0,0.0,0.0,0.0,0.0,0.0,0.0,0.0,0.0,0.0,0.0,0.0,0.0,0.0,0.0,0.0,0.0,0.0,0.0,0.0,0.0,0.0,0.0,0.3333333333333333,0.0,0.0,0.3333333333333333,0.0,0.0,0.0,0.0,0.0,0.0,0.0,0.0,0.3333333333333333,0.0,0.0,0.0,0.0,0.0
S3_D5 hbo,0.0,0.0,0.0,0.0,0.0,0.0,0.0,0.0,0.0,0.0,0.0,0.0,0.0,0.0,0.0,0.0,0.0,0.0,0.0,0.0,0.0,0.0,0.0,0.0,0.0,0.0,0.0,0.0,0.0,0.0,0.0,0.0,0.0,0.0,0.0,0.0,0.0,0.0,0.0,0.0,0.0,0.0,0.0,0.0,0.0,0.0,0.0,0.0,0.0,0.0,0.0,0.0
S4_D2 hbo,0.0,0.0,0.0,0.0,0.03482587064676617,0.03980099502487562,0.03980099502487562,0.0,0.0,0.03482587064676617,0.03482587064676617,0.03980099502487562,0.0,0.03980099502487562,0.03980099502487562,0.03980099502487562,0.03482587064676617,0.0,0.03980099502487562,0.024875621890547265,0.0,0.029850746268656716,0.0,0.03482587064676617,0.029850746268656716,0.029850746268656716,0.0,0.014925373134328358,0.03482587064676617,0.0,0.03980099502487562,0.03980099502487562,0.0,0.0,0.0,0.03482587064676617,0.03482587064676617,0.0,0.01990049751243781,0.0,0.03980099502487562,0.03980099502487562,0.0,0.03482587064676617,0.0,0.03482587064676617,0.0,0.0,0.0,0.024875621890547265,0.03980099502487562,0.0
S4_D4 hbo,0.0,0.0,0.0,0.0,0.03482587064676617,0.03980099502487562,0.03980099502487562,0.0,0.0,0.03482587064676617,0.03482587064676617,0.03980099502487562,0.0,0.03980099502487562,0.03980099502487562,0.03980099502487562,0.03482587064676617,0.0,0.03980099502487562,0.024875621890547265,0.0,0.029850746268656716,0.0,0.03482587064676617,0.029850746268656716,0.029850746268656716,0.0,0.014925373134328358,0.03482587064676617,0.0,0.03980099502487562,0.03980099502487562,0.0,0.0,0.0,0.03482587064676617,0.03482587064676617,0.0,0.01990049751243781,0.0,0.03980099502487562,0.03980099502487562,0.0,0.03482587064676617,0.0,0.03482587064676617,0.0,0.0,0.0,0.024875621890547265,0.03980099502487562,0.0
S4_D6 hbo,0.0,0.0,0.0,0.0,0.030973451327433628,0.04424778761061947,0.04424778761061947,0.0,0.0,0.030973451327433628,0.030973451327433628,0.03982300884955752,0.0,0.04424778761061947,0.03982300884955752,0.04424778761061947,0.030973451327433628,0.0,0.035398230088495575,0.022123893805309734,0.0,0.02654867256637168,0.0,0.030973451327433628,0.02654867256637168,0.02654867256637168,0.0,0.01327433628318584,0.030973451327433628,0.0,0.04424778761061947,0.04424778761061947,0.0,0.0,0.0,0.030973451327433628,0.03982300884955752,0.0,0.02654867256637168,0.0,0.035398230088495575,0.03982300884955752,0.0,0.03982300884955752,0.0,0.03982300884955752,0.0,0.0,0.0,0.022123893805309734,0.04424778761061947,0.0
S4_D11 hbo,0.0,0.0,0.0,0.0,0.0,0.0,0.0,0.0,0.0,0.0,0.0,0.0,0.0,0.0,0.0,0.0,0.0,0.0,0.0,0.0,0.0,0.0,0.0,0.0,0.0,0.0,0.0,0.0,0.0,0.0,0.0,0.0,0.0,0.0,0.0,0.0,0.0,0.0,0.0,0.0,0.0,0.0,0.0,0.0,0.0,0.0,0.0,0.0,0.0,0.0,0.0,0.0
S5_D3 hbo,0.0,0.0,0.0,0.0,0.027777777777777776,0.047619047619047616,0.047619047619047616,0.0,0.0,0.031746031746031744,0.031746031746031744,0.03968253968253968,0.0,0.04365079365079365,0.03968253968253968,0.047619047619047616,0.031746031746031744,0.0,0.03571428571428571,0.01984126984126984,0.0,0.023809523809523808,0.0,0.031746031746031744,0.023809523809523808,0.023809523809523808,0.0,0.011904761904761904,0.027777777777777776,0.0,0.047619047619047616,0.047619047619047616,0.0,0.0,0.0,0.031746031746031744,0.03968253968253968,0.0,0.023809523809523808,0.0,0.03571428571428571,0.03968253968253968,0.0,0.03968253968253968,0.0,0.03968253968253968,0.0,0.0,0.0,0.01984126984126984,0.047619047619047616,0.0
S5_D5 hbo,0.0,0.0,0.0,0.0,0.030973451327433628,0.04424778761061947,0.04424778761061947,0.0,0.0,0.030973451327433628,0.030973451327433628,0.03982300884955752,0.0,0.04424778761061947,0.03982300884955752,0.04424778761061947,0.030973451327433628,0.0,0.035398230088495575,0.022123893805309734,0.0,0.02654867256637168,0.0,0.030973451327433628,0.02654867256637168,0.02654867256637168,0.0,0.01327433628318584,0.030973451327433628,0.0,0.04424778761061947,0.04424778761061947,0.0,0.0,0.0,0.030973451327433628,0.03982300884955752,0.0,0.02654867256637168,0.0,0.035398230088495575,0.03982300884955752,0.0,0.03982300884955752,0.0,0.03982300884955752,0.0,0.0,0.0,0.022123893805309734,0.04424778761061947,0.0
S5_D7 hbo,0.0,0.0,0.0,0.0,0.024734982332155476,0.045936395759717315,0.04240282685512368,0.0,0.0,0.028268551236749116,0.028268551236749116,0.0353356890459364,0.0,0.038869257950530034,0.0353356890459364,0.0706713780918728,0.028268551236749116,0.0,0.03180212014134275,0.0176678445229682,0.0,0.02120141342756184,0.0,0.028268551236749116,0.02120141342756184,0.02120141342756184,0.0,0.01060070671378092,0.024734982332155476,0.0,0.045936395759717315,0.045936395759717315,0.0,0.0,0.0,0.028268551236749116,0.038869257950530034,0.0035335689045936395,0.02120141342756184,0.0,0.0636042402826855,0.06007067137809187,0.0,0.038869257950530034,0.0,0.0353356890459364,0.0,0.0,0.0,0.0176678445229682,0.045936395759717315,0.0
S6_D4 hbo,0.0,0.0,0.0,0.0,0.03482587064676617,0.03980099502487562,0.03980099502487562,0.0,0.0,0.03482587064676617,0.03482587064676617,0.03980099502487562,0.0,0.03980099502487562,0.03980099502487562,0.03980099502487562,0.03482587064676617,0.0,0.03980099502487562,0.024875621890547265,0.0,0.029850746268656716,0.0,0.03482587064676617,0.029850746268656716,0.029850746268656716,0.0,0.014925373134328358,0.03482587064676617,0.0,0.03980099502487562,0.03980099502487562,0.0,0.0,0.0,0.03482587064676617,0.03482587064676617,0.0,0.01990049751243781,0.0,0.03980099502487562,0.03980099502487562,0.0,0.03482587064676617,0.0,0.03482587064676617,0.0,0.0,0.0,0.024875621890547265,0.03980099502487562,0.0
S6_D5 hbo,0.0,0.0,0.0,0.0,0.0,0.0,0.0,0.0,0.0,0.0,0.0,0.0,0.0,0.0,0.0,0.0,0.0,0.0,0.0,0.0,0.0,0.0,0.0,0.0,0.0,0.0,0.0,0.0,0.0,0.0,0.0,0.0,0.0,0.0,0.0,0.0,0.0,0.0,0.0,0.0,0.0,0.0,0.0,0.0,0.0,0.0,0.0,0.0,0.0,0.0,0.0,0.0
S6_D6 hbo,0.0,0.0,0.0,0.0,0.03255813953488372,0.04186046511627907,0.04186046511627907,0.0,0.0,0.03255813953488372,0.03255813953488372,0.04186046511627907,0.0,0.04186046511627907,0.04186046511627907,0.04186046511627907,0.03255813953488372,0.0,0.037209302325581395,0.023255813953488372,0.0,0.027906976744186046,0.0,0.03255813953488372,0.027906976744186046,0.027906976744186046,0.0,0.013953488372093023,0.03255813953488372,0.0,0.04186046511627907,0.04186046511627907,0.0,0.0,0.0,0.03255813953488372,0.037209302325581395,0.0,0.023255813953488372,0.0,0.037209302325581395,0.04186046511627907,0.0,0.037209302325581395,0.0,0.037209302325581395,0.0,0.0,0.0,0.023255813953488372,0.04186046511627907,0.0
S6_D8 hbo,0.0,0.0,0.0,0.0,0.036231884057971016,0.036231884057971016,0.036231884057971016,0.0,0.0,0.036231884057971016,0.036231884057971016,0.036231884057971016,0.0,0.036231884057971016,0.036231884057971016,0.036231884057971016,0.036231884057971016,0.0,0.036231884057971016,0.028985507246376812,0.0,0.036231884057971016,0.0,0.036231884057971016,0.036231884057971016,0.036231884057971016,0.0,0.021739130434782608,0.036231884057971016,0.0,0.036231884057971016,0.036231884057971016,0.0,0.0,0.0,0.036231884057971016,0.036231884057971016,0.0,0.014492753623188406,0.0,0.036231884057971016,0.036231884057971016,0.0,0.036231884057971016,0.0,0.036231884057971016,0.0,0.0,0.0,0.028985507246376812,0.036231884057971016,0.0
S7_D5 hbo,0.0,0.0,0.0,0.0,0.0,0.0,0.0,0.0,0.0,0.0,0.0,0.0,0.0,0.0,0.0,0.0,0.0,0.0,0.0,0.0,0.0,0.0,0.0,0.0,0.0,0.0,0.0,0.0,0.0,0.0,0.0,0.0,0.0,0.0,0.0,0.0,0.0,0.0,0.0,0.0,0.0,0.0,0.0,0.0,0.0,0.0,0.0,0.0,0.0,0.0,0.0,0.0
S7_D7 hbo,0.0,0.0,0.0,0.0,0.037267080745341616,0.037267080745341616,0.037267080745341616,0.0,0.0,0.037267080745341616,0.037267080745341616,0.037267080745341616,0.0,0.037267080745341616,0.037267080745341616,0.037267080745341616,0.037267080745341616,0.0,0.037267080745341616,0.024844720496894408,0.0,0.031055900621118012,0.0,0.037267080745341616,0.031055900621118012,0.031055900621118012,0.0,0.018633540372670808,0.037267080745341616,0.0,0.037267080745341616,0.037267080745341616,0.0,0.0,0.0,0.037267080745341616,0.037267080745341616,0.0,0.018633540372670808,0.0,0.037267080745341616,0.037267080745341616,0.0,0.037267080745341616,0.0,0.037267080745341616,0.0,0.0,0.0,0.024844720496894408,0.037267080745341616,0.0
S7_D8 hbo,0.0,0.0,0.0,0.0,0.0,0.0,0.0,0.0,0.0,0.0,0.0,0.0,0.0,0.0,0.0,0.0,0.0,0.0,0.0,0.0,0.0,0.0,0.0,0.0,0.0,0.0,0.0,0.0,0.0,0.0,0.0,0.0,0.0,0.0,0.0,0.0,0.0,0.0,0.0,0.0,0.0,0.0,0.0,0.0,0.0,0.0,0.0,0.0,0.0,0.0,0.0,0.0
S8_D6 hbo,0.0,0.0,0.0,0.0,0.03482587064676617,0.03980099502487562,0.03980099502487562,0.0,0.0,0.03482587064676617,0.03482587064676617,0.03980099502487562,0.0,0.03980099502487562,0.03980099502487562,0.03980099502487562,0.03482587064676617,0.0,0.03980099502487562,0.024875621890547265,0.0,0.029850746268656716,0.0,0.03482587064676617,0.029850746268656716,0.029850746268656716,0.0,0.014925373134328358,0.03482587064676617,0.0,0.03980099502487562,0.03980099502487562,0.0,0.0,0.0,0.03482587064676617,0.03482587064676617,0.0,0.01990049751243781,0.0,0.03980099502487562,0.03980099502487562,0.0,0.03482587064676617,0.0,0.03482587064676617,0.0,0.0,0.0,0.024875621890547265,0.03980099502487562,0.0
S8_D8 hbo,0.0,0.0,0.0,0.0,0.037267080745341616,0.037267080745341616,0.037267080745341616,0.0,0.0,0.037267080745341616,0.037267080745341616,0.037267080745341616,0.0,0.037267080745341616,0.037267080745341616,0.037267080745341616,0.037267080745341616,0.0,0.037267080745341616,0.024844720496894408,0.0,0.031055900621118012,0.0,0.037267080745341616,0.031055900621118012,0.031055900621118012,0.0,0.018633540372670808,0.037267080745341616,0.0,0.037267080745341616,0.037267080745341616,0.0,0.0,0.0,0.037267080745341616,0.037267080745341616,0.0,0.018633540372670808,0.0,0.037267080745341616,0.037267080745341616,0.0,0.037267080745341616,0.0,0.037267080745341616,0.0,0.0,0.0,0.024844720496894408,0.037267080745341616,0.0
S8_D15 hbo,0.0,0.0,0.0,0.0,0.037267080745341616,0.037267080745341616,0.037267080745341616,0.0,0.0,0.037267080745341616,0.037267080745341616,0.037267080745341616,0.0,0.037267080745341616,0.037267080745341616,0.037267080745341616,0.037267080745341616,0.0,0.037267080745341616,0.024844720496894408,0.0,0.031055900621118012,0.0,0.037267080745341616,0.031055900621118012,0.031055900621118012,0.0,0.018633540372670808,0.037267080745341616,0.0,0.037267080745341616,0.037267080745341616,0.0,0.0,0.0,0.037267080745341616,0.037267080745341616,0.0,0.018633540372670808,0.0,0.037267080745341616,0.037267080745341616,0.0,0.037267080745341616,0.0,0.037267080745341616,0.0,0.0,0.0,0.024844720496894408,0.037267080745341616,0.0
S9_D2 hbo,0.0,0.0,0.0,0.0,0.0,0.0,0.0,0.0,0.0,0.0,0.0,0.0,0.0,0.0,0.0,0.0,0.0,0.0,0.0,0.0,0.0,0.0,0.0,0.0,0.0,0.0,0.0,0.0,0.0,0.0,0.0,0.0,0.0,0.0,0.0,0.0,0.0,0.0,0.0,0.0,0.0,0.0,0.0,0.0,0.0,0.0,0.0,0.0,0.0,0.0,0.0,0.0
S9_D9 hbo,0.0,0.0,0.0,0.0,0.03571428571428571,0.03571428571428571,0.03571428571428571,0.0,0.0,0.03571428571428571,0.03571428571428571,0.03571428571428571,0.0,0.03571428571428571,0.03571428571428571,0.03571428571428571,0.03571428571428571,0.0,0.03571428571428571,0.03571428571428571,0.0,0.03571428571428571,0.0,0.03571428571428571,0.03571428571428571,0.03571428571428571,0.0,0.023809523809523808,0.03571428571428571,0.0,0.03571428571428571,0.03571428571428571,0.0,0.0,0.0,0.03571428571428571,0.03571428571428571,0.0,0.011904761904761904,0.0,0.03571428571428571,0.03571428571428571,0.0,0.03571428571428571,0.0,0.03571428571428571,0.0,0.0,0.0,0.03571428571428571,0.03571428571428571,0.0
S9_D11 hbo,0.0,0.0,0.0,0.0,0.03389830508474576,0.03954802259887006,0.03954802259887006,0.0,0.0,0.03389830508474576,0.03389830508474576,0.03954802259887006,0.0,0.03954802259887006,0.03954802259887006,0.03954802259887006,0.03389830508474576,0.0,0.03954802259887006,0.022598870056497175,0.0,0.02824858757062147,0.0,0.03389830508474576,0.02824858757062147,0.02824858757062147,0.0,0.01694915254237288,0.03389830508474576,0.0,0.03954802259887006,0.03954802259887006,0.0,0.0,0.0,0.03389830508474576,0.03954802259887006,0.0,0.022598870056497175,0.0,0.03954802259887006,0.03954802259887006,0.0,0.03954802259887006,0.0,0.03954802259887006,0.0,0.0,0.0,0.022598870056497175,0.03954802259887006,0.0
S10_D9 hbo,0.0,0.0,0.0,0.0,0.0,0.0,0.0,0.0,0.0,0.0,0.0,0.0,0.0,0.0,0.0,0.0,0.0,0.0,0.0,0.0,0.0,0.0,0.0,0.0,0.0,0.0,0.0,0.0,0.0,0.0,0.0,0.0,0.0,0.0,0.0,0.0,0.0,0.0,0.0,0.0,0.0,0.0,0.0,0.0,0.0,0.0,0.0,0.0,0.0,0.0,0.0,0.0
S10_D10 hbo,0.0,0.0,0.0,0.0,0.028688524590163935,0.04918032786885246,0.045081967213114756,0.0,0.0,0.028688524590163935,0.028688524590163935,0.036885245901639344,0.0,0.040983606557377046,0.036885245901639344,0.045081967213114756,0.028688524590163935,0.0,0.03278688524590164,0.020491803278688523,0.0,0.02459016393442623,0.0,0.028688524590163935,0.02459016393442623,0.02459016393442623,0.0,0.012295081967213115,0.028688524590163935,0.0,0.04918032786885246,0.05327868852459016,0.0,0.0,0.0,0.028688524590163935,0.04918032786885246,0.0,0.02459016393442623,0.0,0.03278688524590164,0.036885245901639344,0.0,0.04918032786885246,0.0,0.040983606557377046,0.0,0.0,0.0,0.020491803278688523,0.04918032786885246,0.0
S10_D12 hbo,0.0,0.0,0.0,0.0,0.028688524590163935,0.04918032786885246,0.045081967213114756,0.0,0.0,0.028688524590163935,0.028688524590163935,0.036885245901639344,0.0,0.040983606557377046,0.036885245901639344,0.045081967213114756,0.028688524590163935,0.0,0.03278688524590164,0.020491803278688523,0.0,0.02459016393442623,0.0,0.028688524590163935,0.02459016393442623,0.02459016393442623,0.0,0.012295081967213115,0.028688524590163935,0.0,0.04918032786885246,0.05327868852459016,0.0,0.0,0.0,0.028688524590163935,0.04918032786885246,0.0,0.02459016393442623,0.0,0.03278688524590164,0.036885245901639344,0.0,0.04918032786885246,0.0,0.040983606557377046,0.0,0.0,0.0,0.020491803278688523,0.04918032786885246,0.0
S11_D9 hbo,0.0,0.0,0.0,0.0,0.0,0.0,0.0,0.0,0.0,0.0,0.0,0.0,0.0,0.0,0.0,0.0,0.0,0.0,0.0,0.0,0.0,0.0,0.0,0.0,0.0,0.0,0.0,0.0,0.0,0.0,0.0,0.0,0.0,0.0,0.0,0.0,0.0,0.0,0.0,0.0,0.0,0.0,0.0,0.0,0.0,0.0,0.0,0.0,0.0,0.0,0.0,0.0
S11_D11 hbo,0.0,0.0,0.0,0.0,0.0,0.0,0.0,0.0,0.0,0.0,0.0,0.0,0.0,0.0,0.0,0.0,0.0,0.0,0.0,0.0,0.0,0.0,0.0,0.0,0.0,0.0,0.0,0.0,0.0,0.0,0.0,0.0,0.0,0.0,0.0,0.0,0.0,0.0,0.0,0.0,0.0,0.0,0.0,0.0,0.0,0.0,0.0,0.0,0.0,0.0,0.0,0.0
S11_D12 hbo,0.0,0.0,0.0,0.0,0.0,0.0,0.0,0.0625,0.0,0.0,0.0,0.0,0.0,0.0,0.0,0.0,0.0,0.0,0.0,0.0,0.0,0.0,0.0,0.0,0.0,0.0,0.0,0.0,0.0,0.0,0.0,0.0,0.0,0.0,0.5,0.0,0.0,0.125,0.0,0.0,0.0,0.0,0.0,0.0,0.0,0.0,0.3125,0.0,0.0,0.0,0.0,0.0
S11_D13 hbo,0.0,0.0,0.0,0.0,0.03482587064676617,0.03980099502487562,0.03980099502487562,0.0,0.0,0.03482587064676617,0.03482587064676617,0.03980099502487562,0.0,0.03980099502487562,0.03980099502487562,0.03980099502487562,0.03482587064676617,0.0,0.03980099502487562,0.024875621890547265,0.0,0.029850746268656716,0.0,0.03482587064676617,0.029850746268656716,0.029850746268656716,0.0,0.014925373134328358,0.03482587064676617,0.0,0.03980099502487562,0.03980099502487562,0.0,0.0,0.0,0.03482587064676617,0.03482587064676617,0.0,0.01990049751243781,0.0,0.03980099502487562,0.03980099502487562,0.0,0.03482587064676617,0.0,0.03482587064676617,0.0,0.0,0.0,0.024875621890547265,0.03980099502487562,0.0
S12_D10 hbo,0.0,0.0,0.0,0.0,0.026041666666666668,0.052083333333333336,0.046875,0.0,0.0,0.026041666666666668,0.026041666666666668,0.036458333333333336,0.0,0.041666666666666664,0.036458333333333336,0.046875,0.026041666666666668,0.0,0.03125,0.015625,0.0,0.020833333333333332,0.0,0.026041666666666668,0.020833333333333332,0.020833333333333332,0.0,0.010416666666666666,0.026041666666666668,0.0,0.052083333333333336,0.057291666666666664,0.0,0.0,0.0,0.026041666666666668,0.057291666666666664,0.0,0.03125,0.0,0.03125,0.036458333333333336,0.0,0.057291666666666664,0.0,0.046875,0.0,0.0,0.0,0.015625,0.052083333333333336,0.0
S12_D12 hbo,0.0,0.0,0.0,0.0,0.0,0.0,0.0,0.05555555555555555,0.0,0.0,0.0,0.0,0.0,0.0,0.0,0.05555555555555555,0.0,0.0,0.0,0.0,0.0,0.0,0.0,0.0,0.0,0.0,0.0,0.0,0.0,0.0,0.0,0.0,0.0,0.0,0.2222222222222222,0.0,0.0,0.2777777777777778,0.0,0.0,0.05555555555555555,0.05555555555555555,0.0,0.0,0.1111111111111111,0.0,0.16666666666666666,0.0,0.0,0.0,0.0,0.0
S12_D14 hbo,0.0,0.0,0.0,0.0,0.020202020202020204,0.06060606060606061,0.06060606060606061,0.0,0.0,0.020202020202020204,0.020202020202020204,0.04040404040404041,0.0,0.050505050505050504,0.04040404040404041,0.06060606060606061,0.020202020202020204,0.0,0.030303030303030304,0.0,0.0,0.010101010101010102,0.0,0.020202020202020204,0.010101010101010102,0.010101010101010102,0.0,0.0,0.020202020202020204,0.0,0.06060606060606061,0.06060606060606061,0.0,0.0,0.0,0.020202020202020204,0.06060606060606061,0.0,0.050505050505050504,0.0,0.030303030303030304,0.04040404040404041,0.0,0.06060606060606061,0.0,0.06060606060606061,0.0,0.0,0.0,0.0,0.06060606060606061,0.0
S13_D6 hbo,0.0,0.0,0.0,0.0,0.0,0.0,0.0,0.0,0.0,0.0,0.0,0.0,0.0,0.0,0.0,0.0,0.0,0.0,0.0,0.0,0.0,0.0,0.0,0.0,0.0,0.0,0.0,0.0,0.0,0.0,0.0,0.0,0.0,0.0,0.0,0.0,0.0,0.0,0.0,0.0,0.0,0.0,0.0,0.0,0.0,0.0,0.0,0.0,0.0,0.0,0.0,0.0
S13_D11 hbo,0.0,0.0,0.0,0.0,0.02734375,0.0390625,0.0390625,0.0,0.0,0.03125,0.03125,0.0390625,0.0,0.0390625,0.0390625,0.06640625,0.03125,0.0,0.03515625,0.01953125,0.0,0.0234375,0.0,0.03125,0.0234375,0.0234375,0.0,0.01171875,0.02734375,0.0,0.0390625,0.0390625,0.0,0.0,0.0,0.03125,0.03125,0.00390625,0.01953125,0.0,0.06640625,0.0703125,0.0,0.03125,0.0,0.03125,0.0,0.0,0.0,0.01953125,0.0390625,0.0
S13_D13 hbo,0.0,0.0,0.0,0.0,0.026717557251908396,0.04198473282442748,0.04198473282442748,0.0,0.0,0.030534351145038167,0.030534351145038167,0.03816793893129771,0.0,0.04198473282442748,0.03816793893129771,0.061068702290076333,0.030534351145038167,0.0,0.03435114503816794,0.019083969465648856,0.0,0.022900763358778626,0.0,0.030534351145038167,0.022900763358778626,0.022900763358778626,0.0,0.011450381679389313,0.026717557251908396,0.0,0.04198473282442748,0.04198473282442748,0.0,0.0,0.0,0.030534351145038167,0.03435114503816794,0.003816793893129771,0.022900763358778626,0.0,0.05725190839694656,0.0648854961832061,0.0,0.03435114503816794,0.0,0.03435114503816794,0.0,0.0,0.0,0.019083969465648856,0.04198473282442748,0.0
S13_D15 hbo,0.0,0.0,0.0,0.0,0.0,0.0,0.0,0.0,0.0,0.0,0.0,0.0,0.0,0.0,0.0,0.0,0.0,0.0,0.0,0.0,0.0,0.0,0.0,0.0,0.0,0.0,0.0,0.0,0.0,0.0,0.0,0.0,0.0,0.0,0.0,0.0,0.0,0.0,0.0,0.0,0.0,0.0,0.0,0.0,0.0,0.0,0.0,0.0,0.0,0.0,0.0,0.0
S14_D12 hbo,0.0,0.0,0.0,0.0,0.026041666666666668,0.052083333333333336,0.046875,0.0,0.0,0.026041666666666668,0.026041666666666668,0.036458333333333336,0.0,0.041666666666666664,0.036458333333333336,0.046875,0.026041666666666668,0.0,0.03125,0.015625,0.0,0.020833333333333332,0.0,0.026041666666666668,0.020833333333333332,0.020833333333333332,0.0,0.010416666666666666,0.026041666666666668,0.0,0.052083333333333336,0.057291666666666664,0.0,0.0,0.0,0.026041666666666668,0.057291666666666664,0.0,0.03125,0.0,0.03125,0.036458333333333336,0.0,0.057291666666666664,0.0,0.046875,0.0,0.0,0.0,0.015625,0.052083333333333336,0.0
S14_D13 hbo,0.0,0.0,0.0,0.0,0.0,0.0,0.0,0.14285714285714285,0.0,0.0,0.0,0.0,0.0,0.0,0.0,0.0,0.0,0.0,0.0,0.0,0.0,0.0,0.0,0.0,0.0,0.0,0.0,0.0,0.0,0.0,0.0,0.0,0.0,0.0,0.2857142857142857,0.0,0.0,0.2857142857142857,0.0,0.0,0.0,0.0,0.0,0.0,0.14285714285714285,0.0,0.14285714285714285,0.0,0.0,0.0,0.0,0.0
S14_D14 hbo,0.0,0.0,0.0,0.0,0.026455026455026454,0.05291005291005291,0.047619047619047616,0.0,0.0,0.026455026455026454,0.026455026455026454,0.037037037037037035,0.0,0.042328042328042326,0.037037037037037035,0.047619047619047616,0.026455026455026454,0.0,0.031746031746031744,0.015873015873015872,0.0,0.021164021164021163,0.0,0.026455026455026454,0.021164021164021163,0.021164021164021163,0.0,0.010582010582010581,0.026455026455026454,0.0,0.05291005291005291,0.05291005291005291,0.0,0.0,0.0,0.026455026455026454,0.05291005291005291,0.0,0.031746031746031744,0.0,0.031746031746031744,0.037037037037037035,0.0,0.05291005291005291,0.0,0.047619047619047616,0.0,0.0,0.0,0.015873015873015872,0.05291005291005291,0.0
S14_D16 hbo,0.0,0.0,0.0,0.0,0.0,0.0,0.0,0.0,0.0,0.0,0.0,0.0,0.0,0.0,0.0,0.0,0.0,0.0,0.0,0.0,0.0,0.0,0.0,0.0,0.0,0.0,0.0,0.0,0.0,0.0,0.0,0.0,0.0,0.0,0.5,0.0,0.0,0.1,0.0,0.0,0.0,0.0,0.0,0.0,0.0,0.0,0.4,0.0,0.0,0.0,0.0,0.0
S15_D13 hbo,0.0,0.0,0.0,0.0,0.0,0.0,0.0,0.0,0.0,0.0,0.0,0.0,0.0,0.0,0.0,0.0,0.0,0.0,0.0,0.0,0.0,0.0,0.0,0.0,0.0,0.0,0.0,0.0,0.0,0.0,0.0,0.0,0.0,0.0,0.0,0.0,0.0,0.0,0.0,0.0,0.0,0.0,0.0,0.0,0.0,0.0,0.0,0.0,0.0,0.0,0.0,0.0
S15_D15 hbo,0.0,0.0,0.0,0.0,0.0,0.0,0.0,0.0,0.0,0.0,0.0,0.0,0.0,0.0,0.0,0.0,0.0,0.0,0.0,0.0,0.0,0.0,0.0,0.0,0.0,0.0,0.0,0.0,0.0,0.0,0.0,0.0,0.0,0.0,0.0,0.0,0.0,0.0,0.0,0.0,0.0,0.0,0.0,0.0,0.0,0.0,0.0,0.0,0.0,0.0,0.0,0.0
S15_D16 hbo,0.0,0.0,0.0,0.0,0.036231884057971016,0.036231884057971016,0.036231884057971016,0.0,0.0,0.036231884057971016,0.036231884057971016,0.036231884057971016,0.0,0.036231884057971016,0.036231884057971016,0.036231884057971016,0.036231884057971016,0.0,0.036231884057971016,0.028985507246376812,0.0,0.036231884057971016,0.0,0.036231884057971016,0.036231884057971016,0.036231884057971016,0.0,0.021739130434782608,0.036231884057971016,0.0,0.036231884057971016,0.036231884057971016,0.0,0.0,0.0,0.036231884057971016,0.036231884057971016,0.0,0.014492753623188406,0.0,0.036231884057971016,0.036231884057971016,0.0,0.036231884057971016,0.0,0.036231884057971016,0.0,0.0,0.0,0.028985507246376812,0.036231884057971016,0.0
S16_D14 hbo,0.0,0.0,0.0,0.0,0.026615969581749048,0.049429657794676805,0.045627376425855515,0.0,0.0,0.030418250950570342,0.030418250950570342,0.03802281368821293,0.0,0.04182509505703422,0.03802281368821293,0.045627376425855515,0.030418250950570342,0.0,0.034220532319391636,0.019011406844106463,0.0,0.022813688212927757,0.0,0.030418250950570342,0.022813688212927757,0.022813688212927757,0.0,0.011406844106463879,0.026615969581749048,0.0,0.049429657794676805,0.053231939163498096,0.0,0.0,0.0,0.030418250950570342,0.045627376425855515,0.0,0.022813688212927757,0.0,0.034220532319391636,0.03802281368821293,0.0,0.045627376425855515,0.0,0.03802281368821293,0.0,0.0,0.0,0.019011406844106463,0.057034220532319393,0.0
S16_D16 hbo,0.0,0.0,0.0,0.0,0.0,0.0,0.0,0.0,0.0,0.0,0.0,0.0,0.0,0.0,0.0,0.0,0.0,0.0,0.0,0.0,0.0,0.0,0.0,0.0,0.0,0.0,0.0,0.0,0.0,0.0,0.0,0.0,0.0,0.0,0.0,0.0,0.0,0.0,0.0,0.0,0.0,0.0,0.0,0.0,0.0,0.0,0.0,0.0,0.0,0.0,0.0,0.0
