,S1_D1 hbo,S1_D3 hbo,S2_D1 hbo,S2_D2 hbo,S2_D4 hbo,S3_D1 hbo,S3_D3 hbo,S3_D4 hbo,S3_D5 hbo,S4_D2 hbo,S4_D4 hbo,S4_D6 hbo,S4_D11 hbo,S5_D3 hbo,S5_D5 hbo,S5_D7 hbo,S6_D4 hbo,S6_D5 hbo,S6_D6 hbo,S6_D8 hbo,S7_D5 hbo,S7_D7 hbo,S7_D8 hbo,S8_D6 hbo,S8_D8 hbo,S8_D15 hbo,S9_D2 hbo,S9_D9 hbo,S9_D11 hbo,S10_D9 hbo,S10_D10 hbo,S10_D12 hbo,S11_D9 hbo,S11_D11 hbo,S11_D12 hbo,S11_D13 hbo,S12_D10 hbo,S12_D12 hbo,S12_D14 hbo,S13_D6 hbo,S13_D11 hbo,S13_D13 hbo,S13_D15 hbo,S14_D12 hbo,S14_D13 hbo,S14_D14 hbo,S14_D16 hbo,S15_D13 hbo,S15_D15 hbo,S15_D16 hbo,S16_D14 hbo,S16_D16 hbo
S1_D1 hbo,0.0,0.0,0.0,0.0,0.0,0.0,0.0,0.0,0.0,0.0,0.0,0.0,0.0,0.0,0.0,0.0,0.0,0.0,0.0,0.0,0.0,0.0,0.0,0.0,0.0,0.0,0.0,0.0,0.0,0.0,0.0,0.0,0.0,0.0,0.0,0.0,0.0,0.0,0.0,0.0,0.0,0.0,0.0,0.0,0.0,0.0,0.0,0.0,0.0,0.0,0.0,0.0
S1_D3 hbo,0.0,0.0,0.0,0.0,0.0,0.0,0.0,0.0,0.0,0.0,0.0,0.0,0.0,0.0,0.0,0.0,0.0,0.0,0.0,0.0,0.0,0.0,0.0,0.0,0.0,0.0,0.0,0.0,0.0,0.0,0.0,0.0,0.0,0.0,0.0,0.0,0.0,0.0,0.0,0.0,0.0,0.0,0.0,0.0,0.0,0.0,0.0,0.0,0.0,0.0,0.0,0.0
S2_D1 hbo,0.0,0.0,0.0,0.0,0.0,0.0,0.0,0.0,0.0,0.0,0.0,0.0,0.0,0.0,0.0,0.0,0.0,0.0,0.0,0.0,0.0,0.0,0.0,0.0,0.0,0.0,0.0,0.0,0.0,0.0,0.0,0.0,0.0,0.0,0.0,0.0,0.0,0.0,0.0,0.0,0.0,0.0,0.0,0.0,0.0,0.0,0.0,0.0,0.0,0.0,0.0,0.0
S2_D2 hbo,0.0,0.0,0.0,0.0,0.0,0.0,0.0,0.0,0.0,0.0,0.0,0.0,0.0,0.0,0.0,0.0,0.0,0.0,0.0,0.0,0.0,0.0,0.0,0.0,0.0,0.0,0.0,0.0,0.0,0.0,0.0,0.0,0.0,0.0,0.0,0.0,0.0,0.0,0.0,0.0,0.0,0.0,0.0,0.0,0.0,0.0,0.0,0.0,0.0,0.0,0.0,0.0
S2_D4 hbo,0.0,0.0,0.0,0.0,0.04093567251461988,0.0,0.0,0.04093567251461988,0.0,0.0,0.04678362573099415,0.023391812865497075,0.0,0.005847953216374269,0.0,0.0,0.04678362573099415,0.03508771929824561,0.04678362573099415,0.04678362573099415,0.023391812865497075,0.005847953216374269,0.04678362573099415,0.04678362573099415,0.04678362573099415,0.04678362573099415,0.0,0.0,0.0,0.0,0.0,0.0,0.0,0.0,0.0,0.0,0.0,0.0,0.017543859649122806,0.0,0.0,0.017543859649122806,0.04678362573099415,0.04678362573099415,0.005847953216374269,0.03508771929824561,0.04678362573099415,0.04678362573099415,0.04678362573099415,0.04678362573099415,0.04678362573099415,0.04678362573099415
S3_D1 hbo,0.0,0.0,0.0,0.0,0.0,0.0,0.0,0.0,0.0,0.0,0.0,0.0,0.0,0.0,0.0,0.0,0.0,0.0,0.0,0.0,0.0,0.0,0.0,0.0,0.0,0.0,0.0,0.0,0.0,0.0,0.0,0.0,0.0,0.0,0.0,0.0,0.0,0.0,0.0,0.0,0.0,0.0,0.0,0.0,0.0,0.0,0.0,0.0,0.0,0.0,0.0,0.0
S3_D3 hbo,0.0,0.0,0.0,0.0,0.0,0.0,0.0,0.0,0.0,0.0,0.0,0.0,0.0,0.0,0.0,0.0,0.0,0.0,0.0,0.0,0.0,0.0,0.0,0.0,0.0,0.0,0.0,0.0,0.0,0.0,0.0,0.0,0.0,0.0,0.0,0.0,0.0,0.0,0.0,0.0,0.0,0.0,0.0,0.0,0.0,0.0,0.0,0.0,0.0,0.0,0.0,0.0
S3_D4 hbo,0.0,0.0,0.0,0.0,0.04093567251461988,0.0,0.0,0.04093567251461988,0.0,0.0,0.04678362573099415,0.023391812865497075,0.0,0.005847953216374269,0.0,0.0,0.04678362573099415,0.03508771929824561,0.04678362573099415,0.04678362573099415,0.023391812865497075,0.005847953216374269,0.04678362573099415,0.04678362573099415,0.04678362573099415,0.04678362573099415,0.0,0.0,0.0,0.0,0.0,0.0,0.0,0.0,0.0,0.0,0.0,0.0,0.017543859649122806,0.0,0.0,0.017543859649122806,0.04678362573099415,0.04678362573099415,0.005847953216374269,0.03508771929824561,0.04678362573099415,0.04678362573099415,0.04678362573099415,0.04678362573099415,0.04678362573099415,0.04678362573099415
S3_D5 hbo,0.0,0.0,0.0,0.0,0.0,0.0,0.0,0.0,0.0,0.0,0.0,0.0,0.0,0.0,0.0,0.0,0.0,0.0,0.0,0.0,0.0,0.0,0.0,0.0,0.0,0.0,0.0,0.0,0.0,0.0,0.0,0.0,0.0,0.0,0.0,0.0,0.0,0.0,0.0,0.0,0.0,0.0,0.0,0.0,0.0,0.0,0.0,0.0,0.0,0.0,0.0,0.0
S4_D2 hbo,0.0,0.0,0.0,0.0,0.0,0.0,0.0,0.0,0.0,0.0,0.0,0.0,0.0,0.0,0.0,0.0,0.0,0.0,0.0,0.0,0.0,0.0,0.0,0.0,0.0,0.0,0.0,0.0,0.0,0.0,0.0,0.0,0.0,0.0,0.0,0.0,0.0,0.0,0.0,0.0,0.0,0.0,0.0,0.0,0.0,0.0,0.0,0.0,0.0,0.0,0.0,0.0
S4_D4 hbo,0.0,0.0,0.0,0.0,0.030973451327433628,0.0,0.0,0.030973451327433628,0.0,0.0,0.061946902654867256,0.017699115044247787,0.0,0.004424778761061947,0.0,0.0,0.048672566371681415,0.02654867256637168,0.048672566371681415,0.04424778761061947,0.017699115044247787,0.004424778761061947,0.048672566371681415,0.05752212389380531,0.05752212389380531,0.06637168141592921,0.0,0.0,0.0,0.0,0.0,0.0,0.0,0.0,0.0,0.0,0.0,0.0,0.01327433628318584,0.0,0.0,0.01327433628318584,0.05309734513274336,0.03982300884955752,0.004424778761061947,0.02654867256637168,0.035398230088495575,0.04424778761061947,0.06637168141592921,0.05309734513274336,0.035398230088495575,0.048672566371681415
S4_D6 hbo,0.0,0.0,0.0,0.0,0.042735042735042736,0.0,0.0,0.042735042735042736,0.0,0.0,0.042735042735042736,0.03418803418803419,0.0,0.008547008547008548,0.0,0.0,0.042735042735042736,0.042735042735042736,0.042735042735042736,0.042735042735042736,0.03418803418803419,0.008547008547008548,0.042735042735042736,0.042735042735042736,0.042735042735042736,0.042735042735042736,0.0,0.0,0.0,0.0,0.0,0.0,0.0,0.0,0.0,0.0,0.0,0.0,0.02564102564102564,0.0,0.0,0.02564102564102564,0.042735042735042736,0.042735042735042736,0.008547008547008548,0.042735042735042736,0.042735042735042736,0.042735042735042736,0.042735042735042736,0.042735042735042736,0.042735042735042736,0.042735042735042736
S4_D11 hbo,0.0,0.0,0.0,0.0,0.0,0.0,0.0,0.0,0.0,0.0,0.0,0.0,0.0,0.0,0.0,0.0,0.0,0.0,0.0,0.0,0.0,0.0,0.0,0.0,0.0,0.0,0.0,0.0,0.0,0.0,0.0,0.0,0.0,0.0,0.0,0.0,0.0,0.0,0.0,0.0,0.0,0.0,0.0,0.0,0.0,0.0,0.0,0.0,0.0,0.0,0.0,0.0
S5_D3 hbo,0.0,0.0,0.0,0.0,0.0392156862745098,0.0,0.0,0.0392156862745098,0.0,0.0,0.0392156862745098,0.0392156862745098,0.0,0.0196078431372549,0.0,0.0,0.0392156862745098,0.0392156862745098,0.0392156862745098,0.0392156862745098,0.0392156862745098,0.0196078431372549,0.0392156862745098,0.0392156862745098,0.0392156862745098,0.0392156862745098,0.0,0.0,0.0,0.0,0.0,0.0,0.0,0.0,0.0,0.0,0.0,0.0,0.0392156862745098,0.0,0.0,0.0392156862745098,0.0392156862745098,0.0392156862745098,0.0196078431372549,0.0392156862745098,0.0392156862745098,0.0392156862745098,0.0392156862745098,0.0392156862745098,0.0392156862745098,0.0392156862745098
S5_D5 hbo,0.0,0.0,0.0,0.0,0.037037037037037035,0.0,0.0,0.037037037037037035,0.0,0.0,0.037037037037037035,0.037037037037037035,0.0,0.037037037037037035,0.0,0.0,0.037037037037037035,0.037037037037037035,0.037037037037037035,0.037037037037037035,0.037037037037037035,0.037037037037037035,0.037037037037037035,0.037037037037037035,0.037037037037037035,0.037037037037037035,0.0,0.0,0.0,0.0,0.0,0.0,0.0,0.0,0.0,0.0,0.0,0.0,0.037037037037037035,0.0,0.0,0.037037037037037035,0.037037037037037035,0.037037037037037035,0.037037037037037035,0.037037037037037035,0.037037037037037035,0.037037037037037035,0.037037037037037035,0.037037037037037035,0.037037037037037035,0.037037037037037035
S5_D7 hbo,0.0,0.0,0.0,0.0,0.0,0.0,0.0,0.0,0.0,0.0,0.0,0.0,0.0,0.0,0.0,0.0,0.0,0.0,0.0,0.0,0.0,0.0,0.0,0.0,0.0,0.0,0.0,0.0,0.0,0.0,0.0,0.0,0.0,0.0,0.0,0.0,0.0,0.0,0.0,0.0,0.0,0.0,0.0,0.0,0.0,0.0,0.0,0.0,0.0,0.0,0.0,0.0
S6_D4 hbo,0.0,0.0,0.0,0.0,0.032407407407407406,0.0,0.0,0.032407407407407406,0.0,0.0,0.05555555555555555,0.018518518518518517,0.0,0.004629629629629629,0.0,0.0,0.05092592592592592,0.027777777777777776,0.05092592592592592,0.046296296296296294,0.018518518518518517,0.004629629629629629,0.05092592592592592,0.05555555555555555,0.05555555555555555,0.05555555555555555,0.0,0.0,0.0,0.0,0.0,0.0,0.0,0.0,0.0,0.0,0.0,0.0,0.013888888888888888,0.0,0.0,0.013888888888888888,0.05555555555555555,0.041666666666666664,0.004629629629629629,0.027777777777777776,0.037037037037037035,0.046296296296296294,0.05555555555555555,0.05555555555555555,0.037037037037037035,0.05092592592592592
S6_D5 hbo,0.0,0.0,0.0,0.0,0.04516129032258064,0.0,0.0,0.04516129032258064,0.0,0.0,0.04516129032258064,0.025806451612903226,0.0,0.0064516129032258064,0.0,0.0,0.04516129032258064,0.03870967741935484,0.04516129032258064,0.04516129032258064,0.025806451612903226,0.0064516129032258064,0.04516129032258064,0.04516129032258064,0.04516129032258064,0.04516129032258064,0.0,0.0,0.0,0.0,0.0,0.0,0.0,0.0,0.0,0.0,0.0,0.0,0.01935483870967742,0.0,0.0,0.01935483870967742,0.04516129032258064,0.04516129032258064,0.0064516129032258064,0.03870967741935484,0.04516129032258064,0.04516129032258064,0.04516129032258064,0.04516129032258064,0.04516129032258064,0.04516129032258064
S6_D6 hbo,0.0,0.0,0.0,0.0,0.032407407407407406,0.0,0.0,0.032407407407407406,0.0,0.0,0.05555555555555555,0.018518518518518517,0.0,0.004629629629629629,0.0,0.0,0.05092592592592592,0.027777777777777776,0.05092592592592592,0.046296296296296294,0.018518518518518517,0.004629629629629629,0.05092592592592592,0.05555555555555555,0.05555555555555555,0.05555555555555555,0.0,0.0,0.0,0.0,0.0,0.0,0.0,0.0,0.0,0.0,0.0,0.0,0.013888888888888888,0.0,0.0,0.013888888888888888,0.05555555555555555,0.041666666666666664,0.004629629629629629,0.027777777777777776,0.037037037037037035,0.046296296296296294,0.05555555555555555,0.05555555555555555,0.037037037037037035,0.05092592592592592
S6_D8 hbo,0.0,0.0,0.0,0.0,0.03349282296650718,0.0,0.0,0.03349282296650718,0.0,0.0,0.05263157894736842,0.019138755980861243,0.0,0.004784688995215311,0.0,0.0,0.05263157894736842,0.028708133971291867,0.05263157894736842,0.04784688995215311,0.019138755980861243,0.004784688995215311,0.05263157894736842,0.05263157894736842,0.05263157894736842,0.05263157894736842,0.0,0.0,0.0,0.0,0.0,0.0,0.0,0.0,0.0,0.0,0.0,0.0,0.014354066985645933,0.0,0.0,0.014354066985645933,0.05263157894736842,0.0430622009569378,0.004784688995215311,0.028708133971291867,0.03827751196172249,0.04784688995215311,0.05263157894736842,0.05263157894736842,0.03827751196172249,0.05263157894736842
S7_D5 hbo,0.0,0.0,0.0,0.0,0.042735042735042736,0.0,0.0,0.042735042735042736,0.0,0.0,0.042735042735042736,0.03418803418803419,0.0,0.008547008547008548,0.0,0.0,0.042735042735042736,0.042735042735042736,0.042735042735042736,0.042735042735042736,0.03418803418803419,0.008547008547008548,0.042735042735042736,0.042735042735042736,0.042735042735042736,0.042735042735042736,0.0,0.0,0.0,0.0,0.0,0.0,0.0,0.0,0.0,0.0,0.0,0.0,0.02564102564102564,0.0,0.0,0.02564102564102564,0.042735042735042736,0.042735042735042736,0.008547008547008548,0.042735042735042736,0.042735042735042736,0.042735042735042736,0.042735042735042736,0.042735042735042736,0.042735042735042736,0.042735042735042736
S7_D7 hbo,0.0,0.0,0.0,0.0,0.0392156862745098,0.0,0.0,0.0392156862745098,0.0,0.0,0.0392156862745098,0.0392156862745098,0.0,0.0196078431372549,0.0,0.0,0.0392156862745098,0.0392156862745098,0.0392156862745098,0.0392156862745098,0.0392156862745098,0.0196078431372549,0.0392156862745098,0.0392156862745098,0.0392156862745098,0.0392156862745098,0.0,0.0,0.0,0.0,0.0,0.0,0.0,0.0,0.0,0.0,0.0,0.0,0.0392156862745098,0.0,0.0,0.0392156862745098,0.0392156862745098,0.0392156862745098,0.0196078431372549,0.0392156862745098,0.0392156862745098,0.0392156862745098,0.0392156862745098,0.0392156862745098,0.0392156862745098,0.0392156862745098
S7_D8 hbo,0.0,0.0,0.0,0.0,0.032407407407407406,0.0,0.0,0.032407407407407406,0.0,0.0,0.05555555555555555,0.018518518518518517,0.0,0.004629629629629629,0.0,0.0,0.05092592592592592,0.027777777777777776,0.05092592592592592,0.046296296296296294,0.018518518518518517,0.004629629629629629,0.05092592592592592,0.05555555555555555,0.05555555555555555,0.05555555555555555,0.0,0.0,0.0,0.0,0.0,0.0,0.0,0.0,0.0,0.0,0.0,0.0,0.013888888888888888,0.0,0.0,0.013888888888888888,0.05555555555555555,0.041666666666666664,0.004629629629629629,0.027777777777777776,0.037037037037037035,0.046296296296296294,0.05555555555555555,0.05555555555555555,0.037037037037037035,0.05092592592592592
S8_D6 hbo,0.0,0.0,0.0,0.0,0.03125,0.0,0.0,0.03125,0.0,0.0,0.0625,0.017857142857142856,0.0,0.004464285714285714,0.0,0.0,0.049107142857142856,0.026785714285714284,0.049107142857142856,0.044642857142857144,0.017857142857142856,0.004464285714285714,0.049107142857142856,0.05803571428571429,0.05803571428571429,0.0625,0.0,0.0,0.0,0.0,0.0,0.0,0.0,0.0,0.0,0.0,0.0,0.0,0.013392857142857142,0.0,0.0,0.013392857142857142,0.05357142857142857,0.04017857142857143,0.004464285714285714,0.026785714285714284,0.03571428571428571,0.044642857142857144,0.0625,0.05357142857142857,0.03571428571428571,0.049107142857142856
S8_D8 hbo,0.0,0.0,0.0,0.0,0.03125,0.0,0.0,0.03125,0.0,0.0,0.0625,0.017857142857142856,0.0,0.004464285714285714,0.0,0.0,0.049107142857142856,0.026785714285714284,0.049107142857142856,0.044642857142857144,0.017857142857142856,0.004464285714285714,0.049107142857142856,0.05803571428571429,0.05803571428571429,0.0625,0.0,0.0,0.0,0.0,0.0,0.0,0.0,0.0,0.0,0.0,0.0,0.0,0.013392857142857142,0.0,0.0,0.013392857142857142,0.05357142857142857,0.04017857142857143,0.004464285714285714,0.026785714285714284,0.03571428571428571,0.044642857142857144,0.0625,0.05357142857142857,0.03571428571428571,0.049107142857142856
S8_D15 hbo,0.0,0.0,0.0,0.0,0.030973451327433628,0.0,0.0,0.030973451327433628,0.0,0.0,0.061946902654867256,0.017699115044247787,0.0,0.004424778761061947,0.0,0.0,0.048672566371681415,0.02654867256637168,0.048672566371681415,0.04424778761061947,0.017699115044247787,0.004424778761061947,0.048672566371681415,0.05752212389380531,0.05752212389380531,0.06637168141592921,0.0,0.0,0.0,0.0,0.0,0.0,0.0,0.0,0.0,0.0,0.0,0.0,0.01327433628318584,0.0,0.0,0.01327433628318584,0.05309734513274336,0.03982300884955752,0.004424778761061947,0.02654867256637168,0.035398230088495575,0.04424778761061947,0.06637168141592921,0.05309734513274336,0.035398230088495575,0.048672566371681415
S9_D2 hbo,0.0,0.0,0.0,0.0,0.0,0.0,0.0,0.0,0.0,0.0,0.0,0.0,0.0,0.0,0.0,0.0,0.0,0.0,0.0,0.0,0.0,0.0,0.0,0.0,0.0,0.0,0.0,0.0,0.0,0.0,0.0,0.0,0.0,0.0,0.0,0.0,0.0,0.0,0.0,0.0,0.0,0.0,0.0,0.0,0.0,0.0,0.0,0.0,0.0,0.0,0.0,0.0
S9_D9 hbo,0.0,0.0,0.0,0.0,0.0,0.0,0.0,0.0,0.0,0.0,0.0,0.0,0.0,0.0,0.0,0.0,0.0,0.0,0.0,0.0,0.0,0.0,0.0,0.0,0.0,0.0,0.0,0.0,0.0,0.0,0.0,0.0,0.0,0.0,0.0,0.0,0.0,0.0,0.0,0.0,0.0,0.0,0.0,0.0,0.0,0.0,0.0,0.0,0.0,0.0,0.0,0.0
S9_D11 hbo,0.0,0.0,0.0,0.0,0.0,0.0,0.0,0.0,0.0,0.0,0.0,0.0,0.0,0.0,0.0,0.0,0.0,0.0,0.0,0.0,0.0,0.0,0.0,0.0,0.0,0.0,0.0,0.0,0.0,0.0,0.0,0.0,0.0,0.0,0.0,0.0,0.0,0.0,0.0,0.0,0.0,0.0,0.0,0.0,0.0,0.0,0.0,0.0,0.0,0.0,0.0,0.0
S10_D9 hbo,0.0,0.0,0.0,0.0,0.0,0.0,0.0,0.0,0.0,0.0,0.0,0.0,0.0,0.0,0.0,0.0,0.0,0.0,0.0,0.0,0.0,0.0,0.0,0.0,0.0,0.0,0.0,0.0,0.0,0.0,0.0,0.0,0.0,0.0,0.0,0.0,0.0,0.0,0.0,0.0,0.0,0.0,0.0,0.0,0.0,0.0,0.0,0.0,0.0,0.0,0.0,0.0
S10_D10 hbo,0.0,0.0,0.0,0.0,0.0,0.0,0.0,0.0,0.0,0.0,0.0,0.0,0.0,0.0,0.0,0.0,0.0,0.0,0.0,0.0,0.0,0.0,0.0,0.0,0.0,0.0,0.0,0.0,0.0,0.0,0.0,0.0,0.0,0.0,0.0,0.0,0.0,0.0,0.0,0.0,0.0,0.0,0.0,0.0,0.0,0.0,0.0,0.0,0.0,0.0,0.0,0.0
S10_D12 hbo,0.0,0.0,0.0,0.0,0.0,0.0,0.0,0.0,0.0,0.0,0.0,0.0,0.0,0.0,0.0,0.0,0.0,0.0,0.0,0.0,0.0,0.0,0.0,0.0,0.0,0.0,0.0,0.0,0.0,0.0,0.0,0.0,0.0,0.0,0.0,0.0,0.0,0.0,0.0,0.0,0.0,0.0,0.0,0.0,0.0,0.0,0.0,0.0,0.0,0.0,0.0,0.0
S11_D9 hbo,0.0,0.0,0.0,0.0,0.0,0.0,0.0,0.0,0.0,0.0,0.0,0.0,0.0,0.0,0.0,0.0,0.0,0.0,0.0,0.0,0.0,0.0,0.0,0.0,0.0,0.0,0.0,0.0,0.0,0.0,0.0,0.0,0.0,0.0,0.0,0.0,0.0,0.0,0.0,0.0,0.0,0.0,0.0,0.0,0.0,0.0,0.0,0.0,0.0,0.0,0.0,0.0
S11_D11 hbo,0.0,0.0,0.0,0.0,0.0,0.0,0.0,0.0,0.0,0.0,0.0,0.0,0.0,0.0,0.0,0.0,0.0,0.0,0.0,0.0,0.0,0.0,0.0,0.0,0.0,0.0,0.0,0.0,0.0,0.0,0.0,0.0,0.0,0.0,0.0,0.0,0.0,0.0,0.0,0.0,0.0,0.0,0.0,0.0,0.0,0.0,0.0,0.0,0.0,0.0,0.0,0.0
S11_D12 hbo,0.0,0.0,0.0,0.0,0.0,0.0,0.0,0.0,0.0,0.0,0.0,0.0,0.0,0.0,0.0,0.0,0.0,0.0,0.0,0.0,0.0,0.0,0.0,0.0,0.0,0.0,0.0,0.0,0.0,0.0,0.0,0.0,0.0,0.0,0.0,0.0,0.0,0.0,0.0,0.0,0.0,0.0,0.0,0.0,0.0,0.0,0.0,0.0,0.0,0.0,0.0,0.0
S11_D13 hbo,0.0,0.0,0.0,0.0,0.0,0.0,0.0,0.0,0.0,0.0,0.0,0.0,0.0,0.0,0.0,0.0,0.0,0.0,0.0,0.0,0.0,0.0,0.0,0.0,0.0,0.0,0.0,0.0,0.0,0.0,0.0,0.0,0.0,0.0,0.0,0.0,0.0,0.0,0.0,0.0,0.0,0.0,0.0,0.0,0.0,0.0,0.0,0.0,0.0,0.0,0.0,0.0
S12_D10 hbo,0.0,0.0,0.0,0.0,0.0,0.0,0.0,0.0,0.0,0.0,0.0,0.0,0.0,0.0,0.0,0.0,0.0,0.0,0.0,0.0,0.0,0.0,0.0,0.0,0.0,0.0,0.0,0.0,0.0,0.0,0.0,0.0,0.0,0.0,0.0,0.0,0.0,0.0,0.0,0.0,0.0,0.0,0.0,0.0,0.0,0.0,0.0,0.0,0.0,0.0,0.0,0.0
S12_D12 hbo,0.0,0.0,0.0,0.0,0.0,0.0,0.0,0.0,0.0,0.0,0.0,0.0,0.0,0.0,0.0,0.0,0.0,0.0,0.0,0.0,0.0,0.0,0.0,0.0,0.0,0.0,0.0,0.0,0.0,0.0,0.0,0.0,0.0,0.0,0.0,0.0,0.0,0.0,0.0,0.0,0.0,0.0,0.0,0.0,0.0,0.0,0.0,0.0,0.0,0.0,0.0,0.0
S12_D14 hbo,0.0,0.0,0.0,0.0,0.041237113402061855,0.0,0.0,0.041237113402061855,0.0,0.0,0.041237113402061855,0.041237113402061855,0.0,0.010309278350515464,0.0,0.0,0.041237113402061855,0.041237113402061855,0.041237113402061855,0.041237113402061855,0.041237113402061855,0.010309278350515464,0.041237113402061855,0.041237113402061855,0.041237113402061855,0.041237113402061855,0.0,0.0,0.0,0.0,0.0,0.0,0.0,0.0,0.0,0.0,0.0,0.0,0.030927835051546393,0.0,0.0,0.030927835051546393,0.041237113402061855,0.041237113402061855,0.010309278350515464,0.041237113402061855,0.041237113402061855,0.041237113402061855,0.041237113402061855,0.041237113402061855,0.041237113402061855,0.041237113402061855
S13_D6 hbo,0.0,0.0,0.0,0.0,0.0,0.0,0.0,0.0,0.0,0.0,0.0,0.0,0.0,0.0,0.0,0.0,0.0,0.0,0.0,0.0,0.0,0.0,0.0,0.0,0.0,0.0,0.0,0.0,0.0,0.0,0.0,0.0,0.0,0.0,0.0,0.0,0.0,0.0,0.0,0.0,0.0,0.0,0.0,0.0,0.0,0.0,0.0,0.0,0.0,0.0,0.0,0.0
S13_D11 hbo,0.0,0.0,0.0,0.0,0.0,0.0,0.0,0.0,0.0,0.0,0.0,0.0,0.0,0.0,0.0,0.0,0.0,0.0,0.0,0.0,0.0,0.0,0.0,0.0,0.0,0.0,0.0,0.0,0.0,0.0,0.0,0.0,0.0,0.0,0.0,0.0,0.0,0.0,0.0,0.0,0.0,0.0,0.0,0.0,0.0,0.0,0.0,0.0,0.0,0.0,0.0,0.0
S13_D13 hbo,0.0,0.0,0.0,0.0,0.041237113402061855,0.0,0.0,0.041237113402061855,0.0,0.0,0.041237113402061855,0.041237113402061855,0.0,0.010309278350515464,0.0,0.0,0.041237113402061855,0.041237113402061855,0.041237113402061855,0.041237113402061855,0.041237113402061855,0.010309278350515464,0.041237113402061855,0.041237113402061855,0.041237113402061855,0.041237113402061855,0.0,0.0,0.0,0.0,0.0,0.0,0.0,0.0,0.0,0.0,0.0,0.0,0.030927835051546393,0.0,0.0,0.030927835051546393,0.041237113402061855,0.041237113402061855,0.010309278350515464,0.041237113402061855,0.041237113402061855,0.041237113402061855,0.041237113402061855,0.041237113402061855,0.041237113402061855,0.041237113402061855
S13_D15 hbo,0.0,0.0,0.0,0.0,0.03167420814479638,0.0,0.0,0.03167420814479638,0.0,0.0,0.058823529411764705,0.01809954751131222,0.0,0.004524886877828055,0.0,0.0,0.049773755656108594,0.027149321266968326,0.049773755656108594,0.04524886877828054,0.01809954751131222,0.004524886877828055,0.049773755656108594,0.058823529411764705,0.058823529411764705,0.058823529411764705,0.0,0.0,0.0,0.0,0.0,0.0,0.0,0.0,0.0,0.0,0.0,0.0,0.013574660633484163,0.0,0.0,0.013574660633484163,0.05429864253393665,0.04072398190045249,0.004524886877828055,0.027149321266968326,0.03619909502262444,0.04524886877828054,0.058823529411764705,0.05429864253393665,0.03619909502262444,0.049773755656108594
S14_D12 hbo,0.0,0.0,0.0,0.0,0.03535353535353535,0.0,0.0,0.03535353535353535,0.0,0.0,0.050505050505050504,0.020202020202020204,0.0,0.005050505050505051,0.0,0.0,0.050505050505050504,0.030303030303030304,0.050505050505050504,0.050505050505050504,0.020202020202020204,0.005050505050505051,0.050505050505050504,0.050505050505050504,0.050505050505050504,0.050505050505050504,0.0,0.0,0.0,0.0,0.0,0.0,0.0,0.0,0.0,0.0,0.0,0.0,0.015151515151515152,0.0,0.0,0.015151515151515152,0.050505050505050504,0.045454545454545456,0.005050505050505051,0.030303030303030304,0.04040404040404041,0.050505050505050504,0.050505050505050504,0.050505050505050504,0.04040404040404041,0.050505050505050504
S14_D13 hbo,0.0,0.0,0.0,0.0,0.0392156862745098,0.0,0.0,0.0392156862745098,0.0,0.0,0.0392156862745098,0.0392156862745098,0.0,0.0196078431372549,0.0,0.0,0.0392156862745098,0.0392156862745098,0.0392156862745098,0.0392156862745098,0.0392156862745098,0.0196078431372549,0.0392156862745098,0.0392156862745098,0.0392156862745098,0.0392156862745098,0.0,0.0,0.0,0.0,0.0,0.0,0.0,0.0,0.0,0.0,0.0,0.0,0.0392156862745098,0.0,0.0,0.0392156862745098,0.0392156862745098,0.0392156862745098,0.0196078431372549,0.0392156862745098,0.0392156862745098,0.0392156862745098,0.0392156862745098,0.0392156862745098,0.0392156862745098,0.0392156862745098
S14_D14 hbo,0.0,0.0,0.0,0.0,0.04516129032258064,0.0,0.0,0.04516129032258064,0.0,0.0,0.04516129032258064,0.025806451612903226,0.0,0.0064516129032258064,0.0,0.0,0.04516129032258064,0.03870967741935484,0.04516129032258064,0.04516129032258064,0.025806451612903226,0.0064516129032258064,0.04516129032258064,0.04516129032258064,0.04516129032258064,0.04516129032258064,0.0,0.0,0.0,0.0,0.0,0.0,0.0,0.0,0.0,0.0,0.0,0.0,0.01935483870967742,0.0,0.0,0.01935483870967742,0.04516129032258064,0.04516129032258064,0.0064516129032258064,0.03870967741935484,0.04516129032258064,0.04516129032258064,0.04516129032258064,0.04516129032258064,0.04516129032258064,0.04516129032258064
S14_D16 hbo,0.0,0.0,0.0,0.0,0.03783783783783784,0.0,0.0,0.03783783783783784,0.0,0.0,0.04864864864864865,0.021621621621621623,0.0,0.005405405405405406,0.0,0.0,0.04864864864864865,0.032432432432432434,0.04864864864864865,0.04864864864864865,0.021621621621621623,0.005405405405405406,0.04864864864864865,0.04864864864864865,0.04864864864864865,0.04864864864864865,0.0,0.0,0.0,0.0,0.0,0.0,0.0,0.0,0.0,0.0,0.0,0.0,0.016216216216216217,0.0,0.0,0.016216216216216217,0.04864864864864865,0.04864864864864865,0.005405405405405406,0.032432432432432434,0.043243243243243246,0.04864864864864865,0.04864864864864865,0.04864864864864865,0.043243243243243246,0.04864864864864865
S15_D13 hbo,0.0,0.0,0.0,0.0,0.03349282296650718,0.0,0.0,0.03349282296650718,0.0,0.0,0.05263157894736842,0.019138755980861243,0.0,0.004784688995215311,0.0,0.0,0.05263157894736842,0.028708133971291867,0.05263157894736842,0.04784688995215311,0.019138755980861243,0.004784688995215311,0.05263157894736842,0.05263157894736842,0.05263157894736842,0.05263157894736842,0.0,0.0,0.0,0.0,0.0,0.0,0.0,0.0,0.0,0.0,0.0,0.0,0.014354066985645933,0.0,0.0,0.014354066985645933,0.05263157894736842,0.0430622009569378,0.004784688995215311,0.028708133971291867,0.03827751196172249,0.04784688995215311,0.05263157894736842,0.05263157894736842,0.03827751196172249,0.05263157894736842
S15_D15 hbo,0.0,0.0,0.0,0.0,0.030973451327433628,0.0,0.0,0.030973451327433628,0.0,0.0,0.061946902654867256,0.017699115044247787,0.0,0.004424778761061947,0.0,0.0,0.048672566371681415,0.02654867256637168,0.048672566371681415,0.04424778761061947,0.017699115044247787,0.004424778761061947,0.048672566371681415,0.05752212389380531,0.05752212389380531,0.06637168141592921,0.0,0.0,0.0,0.0,0.0,0.0,0.0,0.0,0.0,0.0,0.0,0.0,0.01327433628318584,0.0,0.0,0.01327433628318584,0.05309734513274336,0.03982300884955752,0.004424778761061947,0.02654867256637168,0.035398230088495575,0.04424778761061947,0.06637168141592921,0.05309734513274336,0.035398230088495575,0.048672566371681415
S15_D16 hbo,0.0,0.0,0.0,0.0,0.03167420814479638,0.0,0.0,0.03167420814479638,0.0,0.0,0.058823529411764705,0.01809954751131222,0.0,0.004524886877828055,0.0,0.0,0.049773755656108594,0.027149321266968326,0.049773755656108594,0.04524886877828054,0.01809954751131222,0.004524886877828055,0.049773755656108594,0.058823529411764705,0.058823529411764705,0.058823529411764705,0.0,0.0,0.0,0.0,0.0,0.0,0.0,0.0,0.0,0.0,0.0,0.0,0.013574660633484163,0.0,0.0,0.013574660633484163,0.05429864253393665,0.04072398190045249,0.004524886877828055,0.027149321266968326,0.03619909502262444,0.04524886877828054,0.058823529411764705,0.05429864253393665,0.03619909502262444,0.049773755656108594
S16_D14 hbo,0.0,0.0,0.0,0.0,0.03783783783783784,0.0,0.0,0.03783783783783784,0.0,0.0,0.04864864864864865,0.021621621621621623,0.0,0.005405405405405406,0.0,0.0,0.04864864864864865,0.032432432432432434,0.04864864864864865,0.04864864864864865,0.021621621621621623,0.005405405405405406,0.04864864864864865,0.04864864864864865,0.04864864864864865,0.04864864864864865,0.0,0.0,0.0,0.0,0.0,0.0,0.0,0.0,0.0,0.0,0.0,0.0,0.016216216216216217,0.0,0.0,0.016216216216216217,0.04864864864864865,0.04864864864864865,0.005405405405405406,0.032432432432432434,0.043243243243243246,0.04864864864864865,0.04864864864864865,0.04864864864864865,0.043243243243243246,0.04864864864864865
S16_D16 hbo,0.0,0.0,0.0,0.0,0.032407407407407406,0.0,0.0,0.032407407407407406,0.0,0.0,0.05555555555555555,0.018518518518518517,0.0,0.004629629629629629,0.0,0.0,0.05092592592592592,0.027777777777777776,0.05092592592592592,0.046296296296296294,0.018518518518518517,0.004629629629629629,0.05092592592592592,0.05555555555555555,0.05555555555555555,0.05555555555555555,0.0,0.0,0.0,0.0,0.0,0.0,0.0,0.0,0.0,0.0,0.0,0.0,0.013888888888888888,0.0,0.0,0.013888888888888888,0.05555555555555555,0.041666666666666664,0.004629629629629629,0.027777777777777776,0.037037037037037035,0.046296296296296294,0.05555555555555555,0.05555555555555555,0.037037037037037035,0.05092592592592592
