,S1_D1 hbo,S1_D3 hbo,S2_D1 hbo,S2_D2 hbo,S2_D4 hbo,S3_D1 hbo,S3_D3 hbo,S3_D4 hbo,S3_D5 hbo,S4_D2 hbo,S4_D4 hbo,S4_D6 hbo,S4_D11 hbo,S5_D3 hbo,S5_D5 hbo,S5_D7 hbo,S6_D4 hbo,S6_D5 hbo,S6_D6 hbo,S6_D8 hbo,S7_D5 hbo,S7_D7 hbo,S7_D8 hbo,S8_D6 hbo,S8_D8 hbo,S8_D15 hbo,S9_D2 hbo,S9_D9 hbo,S9_D11 hbo,S10_D9 hbo,S10_D10 hbo,S10_D12 hbo,S11_D9 hbo,S11_D11 hbo,S11_D12 hbo,S11_D13 hbo,S12_D10 hbo,S12_D12 hbo,S12_D14 hbo,S13_D6 hbo,S13_D11 hbo,S13_D13 hbo,S13_D15 hbo,S14_D12 hbo,S14_D13 hbo,S14_D14 hbo,S14_D16 hbo,S15_D13 hbo,S15_D15 hbo,S15_D16 hbo,S16_D14 hbo,S16_D16 hbo
S1_D1 hbo,0.017543859649122806,0.023391812865497075,0.0,0.023391812865497075,0.023391812865497075,0.0,0.023391812865497075,0.023391812865497075,0.017543859649122806,0.0,0.023391812865497075,0.023391812865497075,0.005847953216374269,0.023391812865497075,0.023391812865497075,0.023391812865497075,0.023391812865497075,0.023391812865497075,0.017543859649122806,0.023391812865497075,0.023391812865497075,0.023391812865497075,0.023391812865497075,0.023391812865497075,0.023391812865497075,0.023391812865497075,0.023391812865497075,0.023391812865497075,0.023391812865497075,0.023391812865497075,0.023391812865497075,0.023391812865497075,0.023391812865497075,0.023391812865497075,0.023391812865497075,0.023391812865497075,0.0,0.0,0.0,0.023391812865497075,0.023391812865497075,0.023391812865497075,0.017543859649122806,0.0,0.023391812865497075,0.023391812865497075,0.023391812865497075,0.023391812865497075,0.011695906432748537,0.023391812865497075,0.023391812865497075,0.023391812865497075
S1_D3 hbo,0.008928571428571428,0.03273809523809524,0.0,0.023809523809523808,0.023809523809523808,0.0,0.017857142857142856,0.03571428571428571,0.008928571428571428,0.0,0.023809523809523808,0.020833333333333332,0.002976190476190476,0.02976190476190476,0.011904761904761904,0.026785714285714284,0.01488095238095238,0.011904761904761904,0.008928571428571428,0.020833333333333332,0.03273809523809524,0.026785714285714284,0.02976190476190476,0.020833333333333332,0.017857142857142856,0.023809523809523808,0.03273809523809524,0.03571428571428571,0.03571428571428571,0.03571428571428571,0.026785714285714284,0.03571428571428571,0.017857142857142856,0.026785714285714284,0.017857142857142856,0.023809523809523808,0.0,0.0,0.0,0.020833333333333332,0.017857142857142856,0.017857142857142856,0.008928571428571428,0.0,0.02976190476190476,0.026785714285714284,0.026785714285714284,0.017857142857142856,0.005952380952380952,0.017857142857142856,0.020833333333333332,0.023809523809523808
S2_D1 hbo,0.0,0.0,0.0,0.0,0.0,0.0,0.0,0.0,0.0,0.0,0.0,0.0,0.0,0.0,0.0,0.0,0.0,0.0,0.0,0.0,0.0,0.0,0.0,0.0,0.0,0.0,0.0,0.0,0.0,0.0,0.0,0.0,0.0,0.0,0.0,0.0,0.0,0.0,0.0,0.0,0.0,0.0,0.0,0.0,0.0,0.0,0.0,0.0,0.0,0.0,0.0,0.0
S2_D2 hbo,0.009615384615384616,0.028846153846153848,0.0,0.02564102564102564,0.02564102564102564,0.0,0.019230769230769232,0.028846153846153848,0.009615384615384616,0.0,0.02564102564102564,0.022435897435897436,0.003205128205128205,0.028846153846153848,0.01282051282051282,0.028846153846153848,0.016025641025641024,0.01282051282051282,0.009615384615384616,0.022435897435897436,0.028846153846153848,0.028846153846153848,0.028846153846153848,0.022435897435897436,0.019230769230769232,0.02564102564102564,0.028846153846153848,0.028846153846153848,0.028846153846153848,0.028846153846153848,0.028846153846153848,0.028846153846153848,0.019230769230769232,0.028846153846153848,0.019230769230769232,0.02564102564102564,0.0,0.0,0.0,0.022435897435897436,0.019230769230769232,0.019230769230769232,0.009615384615384616,0.0,0.028846153846153848,0.028846153846153848,0.028846153846153848,0.019230769230769232,0.00641025641025641,0.019230769230769232,0.022435897435897436,0.02564102564102564
S2_D4 hbo,0.009615384615384616,0.028846153846153848,0.0,0.02564102564102564,0.02564102564102564,0.0,0.019230769230769232,0.028846153846153848,0.009615384615384616,0.0,0.02564102564102564,0.022435897435897436,0.003205128205128205,0.028846153846153848,0.01282051282051282,0.028846153846153848,0.016025641025641024,0.01282051282051282,0.009615384615384616,0.022435897435897436,0.028846153846153848,0.028846153846153848,0.028846153846153848,0.022435897435897436,0.019230769230769232,0.02564102564102564,0.028846153846153848,0.028846153846153848,0.028846153846153848,0.028846153846153848,0.028846153846153848,0.028846153846153848,0.019230769230769232,0.028846153846153848,0.019230769230769232,0.02564102564102564,0.0,0.0,0.0,0.022435897435897436,0.019230769230769232,0.019230769230769232,0.009615384615384616,0.0,0.028846153846153848,0.028846153846153848,0.028846153846153848,0.019230769230769232,0.00641025641025641,0.019230769230769232,0.022435897435897436,0.02564102564102564
S3_D1 hbo,0.022222222222222223,0.022222222222222223,0.0,0.022222222222222223,0.022222222222222223,0.0,0.022222222222222223,0.022222222222222223,0.022222222222222223,0.0,0.022222222222222223,0.022222222222222223,0.022222222222222223,0.022222222222222223,0.022222222222222223,0.022222222222222223,0.022222222222222223,0.022222222222222223,0.022222222222222223,0.022222222222222223,0.022222222222222223,0.022222222222222223,0.022222222222222223,0.022222222222222223,0.022222222222222223,0.022222222222222223,0.022222222222222223,0.022222222222222223,0.022222222222222223,0.022222222222222223,0.022222222222222223,0.022222222222222223,0.022222222222222223,0.022222222222222223,0.022222222222222223,0.022222222222222223,0.0,0.0,0.0,0.022222222222222223,0.022222222222222223,0.022222222222222223,0.022222222222222223,0.0,0.022222222222222223,0.022222222222222223,0.022222222222222223,0.022222222222222223,0.022222222222222223,0.022222222222222223,0.022222222222222223,0.022222222222222223
S3_D3 hbo,0.011029411764705883,0.025735294117647058,0.0,0.025735294117647058,0.025735294117647058,0.0,0.022058823529411766,0.025735294117647058,0.011029411764705883,0.0,0.025735294117647058,0.025735294117647058,0.003676470588235294,0.025735294117647058,0.014705882352941176,0.025735294117647058,0.01838235294117647,0.014705882352941176,0.011029411764705883,0.025735294117647058,0.025735294117647058,0.025735294117647058,0.025735294117647058,0.025735294117647058,0.022058823529411766,0.025735294117647058,0.025735294117647058,0.025735294117647058,0.025735294117647058,0.025735294117647058,0.025735294117647058,0.025735294117647058,0.022058823529411766,0.025735294117647058,0.022058823529411766,0.025735294117647058,0.0,0.0,0.0,0.025735294117647058,0.022058823529411766,0.022058823529411766,0.011029411764705883,0.0,0.025735294117647058,0.025735294117647058,0.025735294117647058,0.022058823529411766,0.007352941176470588,0.022058823529411766,0.025735294117647058,0.025735294117647058
S3_D4 hbo,0.008849557522123894,0.032448377581120944,0.0,0.02359882005899705,0.02359882005899705,0.0,0.017699115044247787,0.035398230088495575,0.008849557522123894,0.0,0.02359882005899705,0.02064896755162242,0.0029498525073746312,0.029498525073746312,0.011799410029498525,0.02654867256637168,0.014749262536873156,0.011799410029498525,0.008849557522123894,0.02064896755162242,0.032448377581120944,0.02654867256637168,0.029498525073746312,0.02064896755162242,0.017699115044247787,0.02359882005899705,0.032448377581120944,0.038348082595870206,0.038348082595870206,0.038348082595870206,0.02654867256637168,0.035398230088495575,0.017699115044247787,0.02654867256637168,0.017699115044247787,0.02359882005899705,0.0,0.0,0.0,0.02064896755162242,0.017699115044247787,0.017699115044247787,0.008849557522123894,0.0,0.029498525073746312,0.02654867256637168,0.02654867256637168,0.017699115044247787,0.0058997050147492625,0.017699115044247787,0.02064896755162242,0.02359882005899705
S3_D5 hbo,0.017543859649122806,0.023391812865497075,0.0,0.023391812865497075,0.023391812865497075,0.0,0.023391812865497075,0.023391812865497075,0.017543859649122806,0.0,0.023391812865497075,0.023391812865497075,0.005847953216374269,0.023391812865497075,0.023391812865497075,0.023391812865497075,0.023391812865497075,0.023391812865497075,0.017543859649122806,0.023391812865497075,0.023391812865497075,0.023391812865497075,0.023391812865497075,0.023391812865497075,0.023391812865497075,0.023391812865497075,0.023391812865497075,0.023391812865497075,0.023391812865497075,0.023391812865497075,0.023391812865497075,0.023391812865497075,0.023391812865497075,0.023391812865497075,0.023391812865497075,0.023391812865497075,0.0,0.0,0.0,0.023391812865497075,0.023391812865497075,0.023391812865497075,0.017543859649122806,0.0,0.023391812865497075,0.023391812865497075,0.023391812865497075,0.023391812865497075,0.011695906432748537,0.023391812865497075,0.023391812865497075,0.023391812865497075
S4_D2 hbo,0.0,0.0,0.0,0.0,0.0,0.0,0.0,0.0,0.0,0.0,0.0,0.0,0.0,0.0,0.0,0.0,0.0,0.0,0.0,0.0,0.0,0.0,0.0,0.0,0.0,0.0,0.0,0.0,0.0,0.0,0.0,0.0,0.0,0.0,0.0,0.0,0.0,0.0,0.0,0.0,0.0,0.0,0.0,0.0,0.0,0.0,0.0,0.0,0.0,0.0,0.0,0.0
S4_D4 hbo,0.009615384615384616,0.028846153846153848,0.0,0.02564102564102564,0.02564102564102564,0.0,0.019230769230769232,0.028846153846153848,0.009615384615384616,0.0,0.02564102564102564,0.022435897435897436,0.003205128205128205,0.028846153846153848,0.01282051282051282,0.028846153846153848,0.016025641025641024,0.01282051282051282,0.009615384615384616,0.022435897435897436,0.028846153846153848,0.028846153846153848,0.028846153846153848,0.022435897435897436,0.019230769230769232,0.02564102564102564,0.028846153846153848,0.028846153846153848,0.028846153846153848,0.028846153846153848,0.028846153846153848,0.028846153846153848,0.019230769230769232,0.028846153846153848,0.019230769230769232,0.02564102564102564,0.0,0.0,0.0,0.022435897435897436,0.019230769230769232,0.019230769230769232,0.009615384615384616,0.0,0.028846153846153848,0.028846153846153848,0.028846153846153848,0.019230769230769232,0.00641025641025641,0.019230769230769232,0.022435897435897436,0.02564102564102564
S4_D6 hbo,0.010169491525423728,0.02711864406779661,0.0,0.02711864406779661,0.02711864406779661,0.0,0.020338983050847456,0.02711864406779661,0.010169491525423728,0.0,0.02711864406779661,0.023728813559322035,0.003389830508474576,0.02711864406779661,0.013559322033898305,0.02711864406779661,0.01694915254237288,0.013559322033898305,0.010169491525423728,0.023728813559322035,0.02711864406779661,0.02711864406779661,0.02711864406779661,0.023728813559322035,0.020338983050847456,0.02711864406779661,0.02711864406779661,0.02711864406779661,0.02711864406779661,0.02711864406779661,0.02711864406779661,0.02711864406779661,0.020338983050847456,0.02711864406779661,0.020338983050847456,0.02711864406779661,0.0,0.0,0.0,0.023728813559322035,0.020338983050847456,0.020338983050847456,0.010169491525423728,0.0,0.02711864406779661,0.02711864406779661,0.02711864406779661,0.020338983050847456,0.006779661016949152,0.020338983050847456,0.023728813559322035,0.02711864406779661
S4_D11 hbo,0.02247191011235955,0.02247191011235955,0.0,0.02247191011235955,0.02247191011235955,0.0,0.02247191011235955,0.02247191011235955,0.02247191011235955,0.0,0.02247191011235955,0.02247191011235955,0.011235955056179775,0.02247191011235955,0.02247191011235955,0.02247191011235955,0.02247191011235955,0.02247191011235955,0.02247191011235955,0.02247191011235955,0.02247191011235955,0.02247191011235955,0.02247191011235955,0.02247191011235955,0.02247191011235955,0.02247191011235955,0.02247191011235955,0.02247191011235955,0.02247191011235955,0.02247191011235955,0.02247191011235955,0.02247191011235955,0.02247191011235955,0.02247191011235955,0.02247191011235955,0.02247191011235955,0.0,0.0,0.0,0.02247191011235955,0.02247191011235955,0.02247191011235955,0.02247191011235955,0.0,0.02247191011235955,0.02247191011235955,0.02247191011235955,0.02247191011235955,0.02247191011235955,0.02247191011235955,0.02247191011235955,0.02247191011235955
S5_D3 hbo,0.00906344410876133,0.03323262839879154,0.0,0.02416918429003021,0.02416918429003021,0.0,0.01812688821752266,0.03323262839879154,0.00906344410876133,0.0,0.02416918429003021,0.021148036253776436,0.0030211480362537764,0.030211480362537766,0.012084592145015106,0.027190332326283987,0.015105740181268883,0.012084592145015106,0.00906344410876133,0.021148036253776436,0.03323262839879154,0.027190332326283987,0.030211480362537766,0.021148036253776436,0.01812688821752266,0.02416918429003021,0.03323262839879154,0.03323262839879154,0.03323262839879154,0.03323262839879154,0.027190332326283987,0.03323262839879154,0.01812688821752266,0.027190332326283987,0.01812688821752266,0.02416918429003021,0.0,0.0,0.0,0.021148036253776436,0.01812688821752266,0.01812688821752266,0.00906344410876133,0.0,0.030211480362537766,0.027190332326283987,0.027190332326283987,0.01812688821752266,0.006042296072507553,0.01812688821752266,0.021148036253776436,0.02416918429003021
S5_D5 hbo,0.014423076923076924,0.02403846153846154,0.0,0.02403846153846154,0.02403846153846154,0.0,0.02403846153846154,0.02403846153846154,0.014423076923076924,0.0,0.02403846153846154,0.02403846153846154,0.004807692307692308,0.02403846153846154,0.019230769230769232,0.02403846153846154,0.02403846153846154,0.019230769230769232,0.014423076923076924,0.02403846153846154,0.02403846153846154,0.02403846153846154,0.02403846153846154,0.02403846153846154,0.02403846153846154,0.02403846153846154,0.02403846153846154,0.02403846153846154,0.02403846153846154,0.02403846153846154,0.02403846153846154,0.02403846153846154,0.02403846153846154,0.02403846153846154,0.02403846153846154,0.02403846153846154,0.0,0.0,0.0,0.02403846153846154,0.02403846153846154,0.02403846153846154,0.014423076923076924,0.0,0.02403846153846154,0.02403846153846154,0.02403846153846154,0.02403846153846154,0.009615384615384616,0.02403846153846154,0.02403846153846154,0.02403846153846154
S5_D7 hbo,0.009287925696594427,0.030959752321981424,0.0,0.02476780185758514,0.02476780185758514,0.0,0.018575851393188854,0.030959752321981424,0.009287925696594427,0.0,0.02476780185758514,0.021671826625386997,0.0030959752321981426,0.030959752321981424,0.01238390092879257,0.02786377708978328,0.015479876160990712,0.01238390092879257,0.009287925696594427,0.021671826625386997,0.030959752321981424,0.02786377708978328,0.030959752321981424,0.021671826625386997,0.018575851393188854,0.02476780185758514,0.030959752321981424,0.030959752321981424,0.030959752321981424,0.030959752321981424,0.02786377708978328,0.030959752321981424,0.018575851393188854,0.02786377708978328,0.018575851393188854,0.02476780185758514,0.0,0.0,0.0,0.021671826625386997,0.018575851393188854,0.018575851393188854,0.009287925696594427,0.0,0.030959752321981424,0.02786377708978328,0.02786377708978328,0.018575851393188854,0.006191950464396285,0.018575851393188854,0.021671826625386997,0.02476780185758514
S6_D4 hbo,0.012295081967213115,0.02459016393442623,0.0,0.02459016393442623,0.02459016393442623,0.0,0.02459016393442623,0.02459016393442623,0.012295081967213115,0.0,0.02459016393442623,0.02459016393442623,0.004098360655737705,0.02459016393442623,0.01639344262295082,0.02459016393442623,0.020491803278688523,0.01639344262295082,0.012295081967213115,0.02459016393442623,0.02459016393442623,0.02459016393442623,0.02459016393442623,0.02459016393442623,0.02459016393442623,0.02459016393442623,0.02459016393442623,0.02459016393442623,0.02459016393442623,0.02459016393442623,0.02459016393442623,0.02459016393442623,0.02459016393442623,0.02459016393442623,0.02459016393442623,0.02459016393442623,0.0,0.0,0.0,0.02459016393442623,0.02459016393442623,0.02459016393442623,0.012295081967213115,0.0,0.02459016393442623,0.02459016393442623,0.02459016393442623,0.02459016393442623,0.00819672131147541,0.02459016393442623,0.02459016393442623,0.02459016393442623
S6_D5 hbo,0.014423076923076924,0.02403846153846154,0.0,0.02403846153846154,0.02403846153846154,0.0,0.02403846153846154,0.02403846153846154,0.014423076923076924,0.0,0.02403846153846154,0.02403846153846154,0.004807692307692308,0.02403846153846154,0.019230769230769232,0.02403846153846154,0.02403846153846154,0.019230769230769232,0.014423076923076924,0.02403846153846154,0.02403846153846154,0.02403846153846154,0.02403846153846154,0.02403846153846154,0.02403846153846154,0.02403846153846154,0.02403846153846154,0.02403846153846154,0.02403846153846154,0.02403846153846154,0.02403846153846154,0.02403846153846154,0.02403846153846154,0.02403846153846154,0.02403846153846154,0.02403846153846154,0.0,0.0,0.0,0.02403846153846154,0.02403846153846154,0.02403846153846154,0.014423076923076924,0.0,0.02403846153846154,0.02403846153846154,0.02403846153846154,0.02403846153846154,0.009615384615384616,0.02403846153846154,0.02403846153846154,0.02403846153846154
S6_D6 hbo,0.017543859649122806,0.023391812865497075,0.0,0.023391812865497075,0.023391812865497075,0.0,0.023391812865497075,0.023391812865497075,0.017543859649122806,0.0,0.023391812865497075,0.023391812865497075,0.005847953216374269,0.023391812865497075,0.023391812865497075,0.023391812865497075,0.023391812865497075,0.023391812865497075,0.017543859649122806,0.023391812865497075,0.023391812865497075,0.023391812865497075,0.023391812865497075,0.023391812865497075,0.023391812865497075,0.023391812865497075,0.023391812865497075,0.023391812865497075,0.023391812865497075,0.023391812865497075,0.023391812865497075,0.023391812865497075,0.023391812865497075,0.023391812865497075,0.023391812865497075,0.023391812865497075,0.0,0.0,0.0,0.023391812865497075,0.023391812865497075,0.023391812865497075,0.017543859649122806,0.0,0.023391812865497075,0.023391812865497075,0.023391812865497075,0.023391812865497075,0.011695906432748537,0.023391812865497075,0.023391812865497075,0.023391812865497075
S6_D8 hbo,0.010169491525423728,0.02711864406779661,0.0,0.02711864406779661,0.02711864406779661,0.0,0.020338983050847456,0.02711864406779661,0.010169491525423728,0.0,0.02711864406779661,0.023728813559322035,0.003389830508474576,0.02711864406779661,0.013559322033898305,0.02711864406779661,0.01694915254237288,0.013559322033898305,0.010169491525423728,0.023728813559322035,0.02711864406779661,0.02711864406779661,0.02711864406779661,0.023728813559322035,0.020338983050847456,0.02711864406779661,0.02711864406779661,0.02711864406779661,0.02711864406779661,0.02711864406779661,0.02711864406779661,0.02711864406779661,0.020338983050847456,0.02711864406779661,0.020338983050847456,0.02711864406779661,0.0,0.0,0.0,0.023728813559322035,0.020338983050847456,0.020338983050847456,0.010169491525423728,0.0,0.02711864406779661,0.02711864406779661,0.02711864406779661,0.020338983050847456,0.006779661016949152,0.020338983050847456,0.023728813559322035,0.02711864406779661
S7_D5 hbo,0.008928571428571428,0.03273809523809524,0.0,0.023809523809523808,0.023809523809523808,0.0,0.017857142857142856,0.03571428571428571,0.008928571428571428,0.0,0.023809523809523808,0.020833333333333332,0.002976190476190476,0.02976190476190476,0.011904761904761904,0.026785714285714284,0.01488095238095238,0.011904761904761904,0.008928571428571428,0.020833333333333332,0.03273809523809524,0.026785714285714284,0.02976190476190476,0.020833333333333332,0.017857142857142856,0.023809523809523808,0.03273809523809524,0.03571428571428571,0.03571428571428571,0.03571428571428571,0.026785714285714284,0.03571428571428571,0.017857142857142856,0.026785714285714284,0.017857142857142856,0.023809523809523808,0.0,0.0,0.0,0.020833333333333332,0.017857142857142856,0.017857142857142856,0.008928571428571428,0.0,0.02976190476190476,0.026785714285714284,0.026785714285714284,0.017857142857142856,0.005952380952380952,0.017857142857142856,0.020833333333333332,0.023809523809523808
S7_D7 hbo,0.009287925696594427,0.030959752321981424,0.0,0.02476780185758514,0.02476780185758514,0.0,0.018575851393188854,0.030959752321981424,0.009287925696594427,0.0,0.02476780185758514,0.021671826625386997,0.0030959752321981426,0.030959752321981424,0.01238390092879257,0.02786377708978328,0.015479876160990712,0.01238390092879257,0.009287925696594427,0.021671826625386997,0.030959752321981424,0.02786377708978328,0.030959752321981424,0.021671826625386997,0.018575851393188854,0.02476780185758514,0.030959752321981424,0.030959752321981424,0.030959752321981424,0.030959752321981424,0.02786377708978328,0.030959752321981424,0.018575851393188854,0.02786377708978328,0.018575851393188854,0.02476780185758514,0.0,0.0,0.0,0.021671826625386997,0.018575851393188854,0.018575851393188854,0.009287925696594427,0.0,0.030959752321981424,0.02786377708978328,0.02786377708978328,0.018575851393188854,0.006191950464396285,0.018575851393188854,0.021671826625386997,0.02476780185758514
S7_D8 hbo,0.00906344410876133,0.03323262839879154,0.0,0.02416918429003021,0.02416918429003021,0.0,0.01812688821752266,0.03323262839879154,0.00906344410876133,0.0,0.02416918429003021,0.021148036253776436,0.0030211480362537764,0.030211480362537766,0.012084592145015106,0.027190332326283987,0.015105740181268883,0.012084592145015106,0.00906344410876133,0.021148036253776436,0.03323262839879154,0.027190332326283987,0.030211480362537766,0.021148036253776436,0.01812688821752266,0.02416918429003021,0.03323262839879154,0.03323262839879154,0.03323262839879154,0.03323262839879154,0.027190332326283987,0.03323262839879154,0.01812688821752266,0.027190332326283987,0.01812688821752266,0.02416918429003021,0.0,0.0,0.0,0.021148036253776436,0.01812688821752266,0.01812688821752266,0.00906344410876133,0.0,0.030211480362537766,0.027190332326283987,0.027190332326283987,0.01812688821752266,0.006042296072507553,0.01812688821752266,0.021148036253776436,0.02416918429003021
S8_D6 hbo,0.010169491525423728,0.02711864406779661,0.0,0.02711864406779661,0.02711864406779661,0.0,0.020338983050847456,0.02711864406779661,0.010169491525423728,0.0,0.02711864406779661,0.023728813559322035,0.003389830508474576,0.02711864406779661,0.013559322033898305,0.02711864406779661,0.01694915254237288,0.013559322033898305,0.010169491525423728,0.023728813559322035,0.02711864406779661,0.02711864406779661,0.02711864406779661,0.023728813559322035,0.020338983050847456,0.02711864406779661,0.02711864406779661,0.02711864406779661,0.02711864406779661,0.02711864406779661,0.02711864406779661,0.02711864406779661,0.020338983050847456,0.02711864406779661,0.020338983050847456,0.02711864406779661,0.0,0.0,0.0,0.023728813559322035,0.020338983050847456,0.020338983050847456,0.010169491525423728,0.0,0.02711864406779661,0.02711864406779661,0.02711864406779661,0.020338983050847456,0.006779661016949152,0.020338983050847456,0.023728813559322035,0.02711864406779661
S8_D8 hbo,0.011029411764705883,0.025735294117647058,0.0,0.025735294117647058,0.025735294117647058,0.0,0.022058823529411766,0.025735294117647058,0.011029411764705883,0.0,0.025735294117647058,0.025735294117647058,0.003676470588235294,0.025735294117647058,0.014705882352941176,0.025735294117647058,0.01838235294117647,0.014705882352941176,0.011029411764705883,0.025735294117647058,0.025735294117647058,0.025735294117647058,0.025735294117647058,0.025735294117647058,0.022058823529411766,0.025735294117647058,0.025735294117647058,0.025735294117647058,0.025735294117647058,0.025735294117647058,0.025735294117647058,0.025735294117647058,0.022058823529411766,0.025735294117647058,0.022058823529411766,0.025735294117647058,0.0,0.0,0.0,0.025735294117647058,0.022058823529411766,0.022058823529411766,0.011029411764705883,0.0,0.025735294117647058,0.025735294117647058,0.025735294117647058,0.022058823529411766,0.007352941176470588,0.022058823529411766,0.025735294117647058,0.025735294117647058
S8_D15 hbo,0.009615384615384616,0.028846153846153848,0.0,0.02564102564102564,0.02564102564102564,0.0,0.019230769230769232,0.028846153846153848,0.009615384615384616,0.0,0.02564102564102564,0.022435897435897436,0.003205128205128205,0.028846153846153848,0.01282051282051282,0.028846153846153848,0.016025641025641024,0.01282051282051282,0.009615384615384616,0.022435897435897436,0.028846153846153848,0.028846153846153848,0.028846153846153848,0.022435897435897436,0.019230769230769232,0.02564102564102564,0.028846153846153848,0.028846153846153848,0.028846153846153848,0.028846153846153848,0.028846153846153848,0.028846153846153848,0.019230769230769232,0.028846153846153848,0.019230769230769232,0.02564102564102564,0.0,0.0,0.0,0.022435897435897436,0.019230769230769232,0.019230769230769232,0.009615384615384616,0.0,0.028846153846153848,0.028846153846153848,0.028846153846153848,0.019230769230769232,0.00641025641025641,0.019230769230769232,0.022435897435897436,0.02564102564102564
S9_D2 hbo,0.008928571428571428,0.03273809523809524,0.0,0.023809523809523808,0.023809523809523808,0.0,0.017857142857142856,0.03571428571428571,0.008928571428571428,0.0,0.023809523809523808,0.020833333333333332,0.002976190476190476,0.02976190476190476,0.011904761904761904,0.026785714285714284,0.01488095238095238,0.011904761904761904,0.008928571428571428,0.020833333333333332,0.03273809523809524,0.026785714285714284,0.02976190476190476,0.020833333333333332,0.017857142857142856,0.023809523809523808,0.03273809523809524,0.03571428571428571,0.03571428571428571,0.03571428571428571,0.026785714285714284,0.03571428571428571,0.017857142857142856,0.026785714285714284,0.017857142857142856,0.023809523809523808,0.0,0.0,0.0,0.020833333333333332,0.017857142857142856,0.017857142857142856,0.008928571428571428,0.0,0.02976190476190476,0.026785714285714284,0.026785714285714284,0.017857142857142856,0.005952380952380952,0.017857142857142856,0.020833333333333332,0.023809523809523808
S9_D9 hbo,0.008823529411764706,0.03235294117647059,0.0,0.023529411764705882,0.023529411764705882,0.0,0.01764705882352941,0.03529411764705882,0.008823529411764706,0.0,0.023529411764705882,0.020588235294117647,0.0029411764705882353,0.029411764705882353,0.011764705882352941,0.026470588235294117,0.014705882352941176,0.011764705882352941,0.008823529411764706,0.020588235294117647,0.03235294117647059,0.026470588235294117,0.029411764705882353,0.020588235294117647,0.01764705882352941,0.023529411764705882,0.03235294117647059,0.03823529411764706,0.041176470588235294,0.03823529411764706,0.026470588235294117,0.03529411764705882,0.01764705882352941,0.026470588235294117,0.01764705882352941,0.023529411764705882,0.0,0.0,0.0,0.020588235294117647,0.01764705882352941,0.01764705882352941,0.008823529411764706,0.0,0.029411764705882353,0.026470588235294117,0.026470588235294117,0.01764705882352941,0.0058823529411764705,0.01764705882352941,0.020588235294117647,0.023529411764705882
S9_D11 hbo,0.008823529411764706,0.03235294117647059,0.0,0.023529411764705882,0.023529411764705882,0.0,0.01764705882352941,0.03529411764705882,0.008823529411764706,0.0,0.023529411764705882,0.020588235294117647,0.0029411764705882353,0.029411764705882353,0.011764705882352941,0.026470588235294117,0.014705882352941176,0.011764705882352941,0.008823529411764706,0.020588235294117647,0.03235294117647059,0.026470588235294117,0.029411764705882353,0.020588235294117647,0.01764705882352941,0.023529411764705882,0.03235294117647059,0.03823529411764706,0.041176470588235294,0.03823529411764706,0.026470588235294117,0.03529411764705882,0.01764705882352941,0.026470588235294117,0.01764705882352941,0.023529411764705882,0.0,0.0,0.0,0.020588235294117647,0.01764705882352941,0.01764705882352941,0.008823529411764706,0.0,0.029411764705882353,0.026470588235294117,0.026470588235294117,0.01764705882352941,0.0058823529411764705,0.01764705882352941,0.020588235294117647,0.023529411764705882
S10_D9 hbo,0.008823529411764706,0.03235294117647059,0.0,0.023529411764705882,0.023529411764705882,0.0,0.01764705882352941,0.03529411764705882,0.008823529411764706,0.0,0.023529411764705882,0.020588235294117647,0.0029411764705882353,0.029411764705882353,0.011764705882352941,0.026470588235294117,0.014705882352941176,0.011764705882352941,0.008823529411764706,0.020588235294117647,0.03235294117647059,0.026470588235294117,0.029411764705882353,0.020588235294117647,0.01764705882352941,0.023529411764705882,0.03235294117647059,0.03823529411764706,0.041176470588235294,0.03823529411764706,0.026470588235294117,0.03529411764705882,0.01764705882352941,0.026470588235294117,0.01764705882352941,0.023529411764705882,0.0,0.0,0.0,0.020588235294117647,0.01764705882352941,0.01764705882352941,0.008823529411764706,0.0,0.029411764705882353,0.026470588235294117,0.026470588235294117,0.01764705882352941,0.0058823529411764705,0.01764705882352941,0.020588235294117647,0.023529411764705882
S10_D10 hbo,0.009287925696594427,0.030959752321981424,0.0,0.02476780185758514,0.02476780185758514,0.0,0.018575851393188854,0.030959752321981424,0.009287925696594427,0.0,0.02476780185758514,0.021671826625386997,0.0030959752321981426,0.030959752321981424,0.01238390092879257,0.02786377708978328,0.015479876160990712,0.01238390092879257,0.009287925696594427,0.021671826625386997,0.030959752321981424,0.02786377708978328,0.030959752321981424,0.021671826625386997,0.018575851393188854,0.02476780185758514,0.030959752321981424,0.030959752321981424,0.030959752321981424,0.030959752321981424,0.02786377708978328,0.030959752321981424,0.018575851393188854,0.02786377708978328,0.018575851393188854,0.02476780185758514,0.0,0.0,0.0,0.021671826625386997,0.018575851393188854,0.018575851393188854,0.009287925696594427,0.0,0.030959752321981424,0.02786377708978328,0.02786377708978328,0.018575851393188854,0.006191950464396285,0.018575851393188854,0.021671826625386997,0.02476780185758514
S10_D12 hbo,0.008849557522123894,0.032448377581120944,0.0,0.02359882005899705,0.02359882005899705,0.0,0.017699115044247787,0.035398230088495575,0.008849557522123894,0.0,0.02359882005899705,0.02064896755162242,0.0029498525073746312,0.029498525073746312,0.011799410029498525,0.02654867256637168,0.014749262536873156,0.011799410029498525,0.008849557522123894,0.02064896755162242,0.032448377581120944,0.02654867256637168,0.029498525073746312,0.02064896755162242,0.017699115044247787,0.02359882005899705,0.032448377581120944,0.038348082595870206,0.038348082595870206,0.038348082595870206,0.02654867256637168,0.035398230088495575,0.017699115044247787,0.02654867256637168,0.017699115044247787,0.02359882005899705,0.0,0.0,0.0,0.02064896755162242,0.017699115044247787,0.017699115044247787,0.008849557522123894,0.0,0.029498525073746312,0.02654867256637168,0.02654867256637168,0.017699115044247787,0.0058997050147492625,0.017699115044247787,0.02064896755162242,0.02359882005899705
S11_D9 hbo,0.011029411764705883,0.025735294117647058,0.0,0.025735294117647058,0.025735294117647058,0.0,0.022058823529411766,0.025735294117647058,0.011029411764705883,0.0,0.025735294117647058,0.025735294117647058,0.003676470588235294,0.025735294117647058,0.014705882352941176,0.025735294117647058,0.01838235294117647,0.014705882352941176,0.011029411764705883,0.025735294117647058,0.025735294117647058,0.025735294117647058,0.025735294117647058,0.025735294117647058,0.022058823529411766,0.025735294117647058,0.025735294117647058,0.025735294117647058,0.025735294117647058,0.025735294117647058,0.025735294117647058,0.025735294117647058,0.022058823529411766,0.025735294117647058,0.022058823529411766,0.025735294117647058,0.0,0.0,0.0,0.025735294117647058,0.022058823529411766,0.022058823529411766,0.011029411764705883,0.0,0.025735294117647058,0.025735294117647058,0.025735294117647058,0.022058823529411766,0.007352941176470588,0.022058823529411766,0.025735294117647058,0.025735294117647058
S11_D11 hbo,0.009287925696594427,0.030959752321981424,0.0,0.02476780185758514,0.02476780185758514,0.0,0.018575851393188854,0.030959752321981424,0.009287925696594427,0.0,0.02476780185758514,0.021671826625386997,0.0030959752321981426,0.030959752321981424,0.01238390092879257,0.02786377708978328,0.015479876160990712,0.01238390092879257,0.009287925696594427,0.021671826625386997,0.030959752321981424,0.02786377708978328,0.030959752321981424,0.021671826625386997,0.018575851393188854,0.02476780185758514,0.030959752321981424,0.030959752321981424,0.030959752321981424,0.030959752321981424,0.02786377708978328,0.030959752321981424,0.018575851393188854,0.02786377708978328,0.018575851393188854,0.02476780185758514,0.0,0.0,0.0,0.021671826625386997,0.018575851393188854,0.018575851393188854,0.009287925696594427,0.0,0.030959752321981424,0.02786377708978328,0.02786377708978328,0.018575851393188854,0.006191950464396285,0.018575851393188854,0.021671826625386997,0.02476780185758514
S11_D12 hbo,0.011029411764705883,0.025735294117647058,0.0,0.025735294117647058,0.025735294117647058,0.0,0.022058823529411766,0.025735294117647058,0.011029411764705883,0.0,0.025735294117647058,0.025735294117647058,0.003676470588235294,0.025735294117647058,0.014705882352941176,0.025735294117647058,0.01838235294117647,0.014705882352941176,0.011029411764705883,0.025735294117647058,0.025735294117647058,0.025735294117647058,0.025735294117647058,0.025735294117647058,0.022058823529411766,0.025735294117647058,0.025735294117647058,0.025735294117647058,0.025735294117647058,0.025735294117647058,0.025735294117647058,0.025735294117647058,0.022058823529411766,0.025735294117647058,0.022058823529411766,0.025735294117647058,0.0,0.0,0.0,0.025735294117647058,0.022058823529411766,0.022058823529411766,0.011029411764705883,0.0,0.025735294117647058,0.025735294117647058,0.025735294117647058,0.022058823529411766,0.007352941176470588,0.022058823529411766,0.025735294117647058,0.025735294117647058
S11_D13 hbo,0.009615384615384616,0.028846153846153848,0.0,0.02564102564102564,0.02564102564102564,0.0,0.019230769230769232,0.028846153846153848,0.009615384615384616,0.0,0.02564102564102564,0.022435897435897436,0.003205128205128205,0.028846153846153848,0.01282051282051282,0.028846153846153848,0.016025641025641024,0.01282051282051282,0.009615384615384616,0.022435897435897436,0.028846153846153848,0.028846153846153848,0.028846153846153848,0.022435897435897436,0.019230769230769232,0.02564102564102564,0.028846153846153848,0.028846153846153848,0.028846153846153848,0.028846153846153848,0.028846153846153848,0.028846153846153848,0.019230769230769232,0.028846153846153848,0.019230769230769232,0.02564102564102564,0.0,0.0,0.0,0.022435897435897436,0.019230769230769232,0.019230769230769232,0.009615384615384616,0.0,0.028846153846153848,0.028846153846153848,0.028846153846153848,0.019230769230769232,0.00641025641025641,0.019230769230769232,0.022435897435897436,0.02564102564102564
S12_D10 hbo,0.0,0.0,0.0,0.0,0.0,0.0,0.0,0.0,0.0,0.0,0.0,0.0,0.0,0.0,0.0,0.0,0.0,0.0,0.0,0.0,0.0,0.0,0.0,0.0,0.0,0.0,0.0,0.0,0.0,0.0,0.0,0.0,0.0,0.0,0.0,0.0,0.0,0.0,0.0,0.0,0.0,0.0,0.0,0.0,0.0,0.0,0.0,0.0,0.0,0.0,0.0,0.0
S12_D12 hbo,0.0,0.0,0.0,0.0,0.0,0.0,0.0,0.0,0.0,0.0,0.0,0.0,0.0,0.0,0.0,0.0,0.0,0.0,0.0,0.0,0.0,0.0,0.0,0.0,0.0,0.0,0.0,0.0,0.0,0.0,0.0,0.0,0.0,0.0,0.0,0.0,0.0,0.0,0.0,0.0,0.0,0.0,0.0,0.0,0.0,0.0,0.0,0.0,0.0,0.0,0.0,0.0
S12_D14 hbo,0.0,0.0,0.0,0.0,0.0,0.0,0.0,0.0,0.0,0.0,0.0,0.0,0.0,0.0,0.0,0.0,0.0,0.0,0.0,0.0,0.0,0.0,0.0,0.0,0.0,0.0,0.0,0.0,0.0,0.0,0.0,0.0,0.0,0.0,0.0,0.0,0.0,0.0,0.0,0.0,0.0,0.0,0.0,0.0,0.0,0.0,0.0,0.0,0.0,0.0,0.0,0.0
S13_D6 hbo,0.010169491525423728,0.02711864406779661,0.0,0.02711864406779661,0.02711864406779661,0.0,0.020338983050847456,0.02711864406779661,0.010169491525423728,0.0,0.02711864406779661,0.023728813559322035,0.003389830508474576,0.02711864406779661,0.013559322033898305,0.02711864406779661,0.01694915254237288,0.013559322033898305,0.010169491525423728,0.023728813559322035,0.02711864406779661,0.02711864406779661,0.02711864406779661,0.023728813559322035,0.020338983050847456,0.02711864406779661,0.02711864406779661,0.02711864406779661,0.02711864406779661,0.02711864406779661,0.02711864406779661,0.02711864406779661,0.020338983050847456,0.02711864406779661,0.020338983050847456,0.02711864406779661,0.0,0.0,0.0,0.023728813559322035,0.020338983050847456,0.020338983050847456,0.010169491525423728,0.0,0.02711864406779661,0.02711864406779661,0.02711864406779661,0.020338983050847456,0.006779661016949152,0.020338983050847456,0.023728813559322035,0.02711864406779661
S13_D11 hbo,0.011029411764705883,0.025735294117647058,0.0,0.025735294117647058,0.025735294117647058,0.0,0.022058823529411766,0.025735294117647058,0.011029411764705883,0.0,0.025735294117647058,0.025735294117647058,0.003676470588235294,0.025735294117647058,0.014705882352941176,0.025735294117647058,0.01838235294117647,0.014705882352941176,0.011029411764705883,0.025735294117647058,0.025735294117647058,0.025735294117647058,0.025735294117647058,0.025735294117647058,0.022058823529411766,0.025735294117647058,0.025735294117647058,0.025735294117647058,0.025735294117647058,0.025735294117647058,0.025735294117647058,0.025735294117647058,0.022058823529411766,0.025735294117647058,0.022058823529411766,0.025735294117647058,0.0,0.0,0.0,0.025735294117647058,0.022058823529411766,0.022058823529411766,0.011029411764705883,0.0,0.025735294117647058,0.025735294117647058,0.025735294117647058,0.022058823529411766,0.007352941176470588,0.022058823529411766,0.025735294117647058,0.025735294117647058
S13_D13 hbo,0.011029411764705883,0.025735294117647058,0.0,0.025735294117647058,0.025735294117647058,0.0,0.022058823529411766,0.025735294117647058,0.011029411764705883,0.0,0.025735294117647058,0.025735294117647058,0.003676470588235294,0.025735294117647058,0.014705882352941176,0.025735294117647058,0.01838235294117647,0.014705882352941176,0.011029411764705883,0.025735294117647058,0.025735294117647058,0.025735294117647058,0.025735294117647058,0.025735294117647058,0.022058823529411766,0.025735294117647058,0.025735294117647058,0.025735294117647058,0.025735294117647058,0.025735294117647058,0.025735294117647058,0.025735294117647058,0.022058823529411766,0.025735294117647058,0.022058823529411766,0.025735294117647058,0.0,0.0,0.0,0.025735294117647058,0.022058823529411766,0.022058823529411766,0.011029411764705883,0.0,0.025735294117647058,0.025735294117647058,0.025735294117647058,0.022058823529411766,0.007352941176470588,0.022058823529411766,0.025735294117647058,0.025735294117647058
S13_D15 hbo,0.017543859649122806,0.023391812865497075,0.0,0.023391812865497075,0.023391812865497075,0.0,0.023391812865497075,0.023391812865497075,0.017543859649122806,0.0,0.023391812865497075,0.023391812865497075,0.005847953216374269,0.023391812865497075,0.023391812865497075,0.023391812865497075,0.023391812865497075,0.023391812865497075,0.017543859649122806,0.023391812865497075,0.023391812865497075,0.023391812865497075,0.023391812865497075,0.023391812865497075,0.023391812865497075,0.023391812865497075,0.023391812865497075,0.023391812865497075,0.023391812865497075,0.023391812865497075,0.023391812865497075,0.023391812865497075,0.023391812865497075,0.023391812865497075,0.023391812865497075,0.023391812865497075,0.0,0.0,0.0,0.023391812865497075,0.023391812865497075,0.023391812865497075,0.017543859649122806,0.0,0.023391812865497075,0.023391812865497075,0.023391812865497075,0.023391812865497075,0.011695906432748537,0.023391812865497075,0.023391812865497075,0.023391812865497075
S14_D12 hbo,0.0,0.0,0.0,0.0,0.0,0.0,0.0,0.0,0.0,0.0,0.0,0.0,0.0,0.0,0.0,0.0,0.0,0.0,0.0,0.0,0.0,0.0,0.0,0.0,0.0,0.0,0.0,0.0,0.0,0.0,0.0,0.0,0.0,0.0,0.0,0.0,0.0,0.0,0.0,0.0,0.0,0.0,0.0,0.0,0.0,0.0,0.0,0.0,0.0,0.0,0.0,0.0
S14_D13 hbo,0.00906344410876133,0.03323262839879154,0.0,0.02416918429003021,0.02416918429003021,0.0,0.01812688821752266,0.03323262839879154,0.00906344410876133,0.0,0.02416918429003021,0.021148036253776436,0.0030211480362537764,0.030211480362537766,0.012084592145015106,0.027190332326283987,0.015105740181268883,0.012084592145015106,0.00906344410876133,0.021148036253776436,0.03323262839879154,0.027190332326283987,0.030211480362537766,0.021148036253776436,0.01812688821752266,0.02416918429003021,0.03323262839879154,0.03323262839879154,0.03323262839879154,0.03323262839879154,0.027190332326283987,0.03323262839879154,0.01812688821752266,0.027190332326283987,0.01812688821752266,0.02416918429003021,0.0,0.0,0.0,0.021148036253776436,0.01812688821752266,0.01812688821752266,0.00906344410876133,0.0,0.030211480362537766,0.027190332326283987,0.027190332326283987,0.01812688821752266,0.006042296072507553,0.01812688821752266,0.021148036253776436,0.02416918429003021
S14_D14 hbo,0.009287925696594427,0.030959752321981424,0.0,0.02476780185758514,0.02476780185758514,0.0,0.018575851393188854,0.030959752321981424,0.009287925696594427,0.0,0.02476780185758514,0.021671826625386997,0.0030959752321981426,0.030959752321981424,0.01238390092879257,0.02786377708978328,0.015479876160990712,0.01238390092879257,0.009287925696594427,0.021671826625386997,0.030959752321981424,0.02786377708978328,0.030959752321981424,0.021671826625386997,0.018575851393188854,0.02476780185758514,0.030959752321981424,0.030959752321981424,0.030959752321981424,0.030959752321981424,0.02786377708978328,0.030959752321981424,0.018575851393188854,0.02786377708978328,0.018575851393188854,0.02476780185758514,0.0,0.0,0.0,0.021671826625386997,0.018575851393188854,0.018575851393188854,0.009287925696594427,0.0,0.030959752321981424,0.02786377708978328,0.02786377708978328,0.018575851393188854,0.006191950464396285,0.018575851393188854,0.021671826625386997,0.02476780185758514
S14_D16 hbo,0.009287925696594427,0.030959752321981424,0.0,0.02476780185758514,0.02476780185758514,0.0,0.018575851393188854,0.030959752321981424,0.009287925696594427,0.0,0.02476780185758514,0.021671826625386997,0.0030959752321981426,0.030959752321981424,0.01238390092879257,0.02786377708978328,0.015479876160990712,0.01238390092879257,0.009287925696594427,0.021671826625386997,0.030959752321981424,0.02786377708978328,0.030959752321981424,0.021671826625386997,0.018575851393188854,0.02476780185758514,0.030959752321981424,0.030959752321981424,0.030959752321981424,0.030959752321981424,0.02786377708978328,0.030959752321981424,0.018575851393188854,0.02786377708978328,0.018575851393188854,0.02476780185758514,0.0,0.0,0.0,0.021671826625386997,0.018575851393188854,0.018575851393188854,0.009287925696594427,0.0,0.030959752321981424,0.02786377708978328,0.02786377708978328,0.018575851393188854,0.006191950464396285,0.018575851393188854,0.021671826625386997,0.02476780185758514
S15_D13 hbo,0.011029411764705883,0.025735294117647058,0.0,0.025735294117647058,0.025735294117647058,0.0,0.022058823529411766,0.025735294117647058,0.011029411764705883,0.0,0.025735294117647058,0.025735294117647058,0.003676470588235294,0.025735294117647058,0.014705882352941176,0.025735294117647058,0.01838235294117647,0.014705882352941176,0.011029411764705883,0.025735294117647058,0.025735294117647058,0.025735294117647058,0.025735294117647058,0.025735294117647058,0.022058823529411766,0.025735294117647058,0.025735294117647058,0.025735294117647058,0.025735294117647058,0.025735294117647058,0.025735294117647058,0.025735294117647058,0.022058823529411766,0.025735294117647058,0.022058823529411766,0.025735294117647058,0.0,0.0,0.0,0.025735294117647058,0.022058823529411766,0.022058823529411766,0.011029411764705883,0.0,0.025735294117647058,0.025735294117647058,0.025735294117647058,0.022058823529411766,0.007352941176470588,0.022058823529411766,0.025735294117647058,0.025735294117647058
S15_D15 hbo,0.022727272727272728,0.022727272727272728,0.0,0.022727272727272728,0.022727272727272728,0.0,0.022727272727272728,0.022727272727272728,0.022727272727272728,0.0,0.022727272727272728,0.022727272727272728,0.007575757575757576,0.022727272727272728,0.022727272727272728,0.022727272727272728,0.022727272727272728,0.022727272727272728,0.022727272727272728,0.022727272727272728,0.022727272727272728,0.022727272727272728,0.022727272727272728,0.022727272727272728,0.022727272727272728,0.022727272727272728,0.022727272727272728,0.022727272727272728,0.022727272727272728,0.022727272727272728,0.022727272727272728,0.022727272727272728,0.022727272727272728,0.022727272727272728,0.022727272727272728,0.022727272727272728,0.0,0.0,0.0,0.022727272727272728,0.022727272727272728,0.022727272727272728,0.022727272727272728,0.0,0.022727272727272728,0.022727272727272728,0.022727272727272728,0.022727272727272728,0.015151515151515152,0.022727272727272728,0.022727272727272728,0.022727272727272728
S15_D16 hbo,0.011029411764705883,0.025735294117647058,0.0,0.025735294117647058,0.025735294117647058,0.0,0.022058823529411766,0.025735294117647058,0.011029411764705883,0.0,0.025735294117647058,0.025735294117647058,0.003676470588235294,0.025735294117647058,0.014705882352941176,0.025735294117647058,0.01838235294117647,0.014705882352941176,0.011029411764705883,0.025735294117647058,0.025735294117647058,0.025735294117647058,0.025735294117647058,0.025735294117647058,0.022058823529411766,0.025735294117647058,0.025735294117647058,0.025735294117647058,0.025735294117647058,0.025735294117647058,0.025735294117647058,0.025735294117647058,0.022058823529411766,0.025735294117647058,0.022058823529411766,0.025735294117647058,0.0,0.0,0.0,0.025735294117647058,0.022058823529411766,0.022058823529411766,0.011029411764705883,0.0,0.025735294117647058,0.025735294117647058,0.025735294117647058,0.022058823529411766,0.007352941176470588,0.022058823529411766,0.025735294117647058,0.025735294117647058
S16_D14 hbo,0.010169491525423728,0.02711864406779661,0.0,0.02711864406779661,0.02711864406779661,0.0,0.020338983050847456,0.02711864406779661,0.010169491525423728,0.0,0.02711864406779661,0.023728813559322035,0.003389830508474576,0.02711864406779661,0.013559322033898305,0.02711864406779661,0.01694915254237288,0.013559322033898305,0.010169491525423728,0.023728813559322035,0.02711864406779661,0.02711864406779661,0.02711864406779661,0.023728813559322035,0.020338983050847456,0.02711864406779661,0.02711864406779661,0.02711864406779661,0.02711864406779661,0.02711864406779661,0.02711864406779661,0.02711864406779661,0.020338983050847456,0.02711864406779661,0.020338983050847456,0.02711864406779661,0.0,0.0,0.0,0.023728813559322035,0.020338983050847456,0.020338983050847456,0.010169491525423728,0.0,0.02711864406779661,0.02711864406779661,0.02711864406779661,0.020338983050847456,0.006779661016949152,0.020338983050847456,0.023728813559322035,0.02711864406779661
S16_D16 hbo,0.009615384615384616,0.028846153846153848,0.0,0.02564102564102564,0.02564102564102564,0.0,0.019230769230769232,0.028846153846153848,0.009615384615384616,0.0,0.02564102564102564,0.022435897435897436,0.003205128205128205,0.028846153846153848,0.01282051282051282,0.028846153846153848,0.016025641025641024,0.01282051282051282,0.009615384615384616,0.022435897435897436,0.028846153846153848,0.028846153846153848,0.028846153846153848,0.022435897435897436,0.019230769230769232,0.02564102564102564,0.028846153846153848,0.028846153846153848,0.028846153846153848,0.028846153846153848,0.028846153846153848,0.028846153846153848,0.019230769230769232,0.028846153846153848,0.019230769230769232,0.02564102564102564,0.0,0.0,0.0,0.022435897435897436,0.019230769230769232,0.019230769230769232,0.009615384615384616,0.0,0.028846153846153848,0.028846153846153848,0.028846153846153848,0.019230769230769232,0.00641025641025641,0.019230769230769232,0.022435897435897436,0.02564102564102564
