,S1_D1 hbo,S1_D3 hbo,S2_D1 hbo,S2_D2 hbo,S2_D4 hbo,S3_D1 hbo,S3_D3 hbo,S3_D4 hbo,S3_D5 hbo,S4_D2 hbo,S4_D4 hbo,S4_D6 hbo,S4_D11 hbo,S5_D3 hbo,S5_D5 hbo,S5_D7 hbo,S6_D4 hbo,S6_D5 hbo,S6_D6 hbo,S6_D8 hbo,S7_D5 hbo,S7_D7 hbo,S7_D8 hbo,S8_D6 hbo,S8_D8 hbo,S8_D15 hbo,S9_D2 hbo,S9_D9 hbo,S9_D11 hbo,S10_D9 hbo,S10_D10 hbo,S10_D12 hbo,S11_D9 hbo,S11_D11 hbo,S11_D12 hbo,S11_D13 hbo,S12_D10 hbo,S12_D12 hbo,S12_D14 hbo,S13_D6 hbo,S13_D11 hbo,S13_D13 hbo,S13_D15 hbo,S14_D12 hbo,S14_D13 hbo,S14_D14 hbo,S14_D16 hbo,S15_D13 hbo,S15_D15 hbo,S15_D16 hbo,S16_D14 hbo,S16_D16 hbo
S1_D1 hbo,0.0,0.0,0.0,0.0,0.0,0.0,0.0,0.0,0.0,0.0,0.0,0.0,0.0,0.0,0.0,0.0,0.0,0.0,0.0,0.0,0.0,0.0,0.0,0.0,0.0,0.0,0.0,0.0,0.0,0.0,0.0,0.0,0.0,0.0,0.0,0.0,0.0,0.0,0.0,0.0,0.0,0.0,0.0,0.0,0.0,0.0,0.0,0.0,0.0,0.0,0.0,0.0
S1_D3 hbo,0.0,0.0,0.0,0.0,0.0,0.0,0.0,0.0,0.0,0.0,0.0,0.0,0.0,0.0,0.0,0.0,0.0,0.0,0.0,0.0,0.0,0.0,0.0,0.0,0.0,0.0,0.0,0.0,0.0,0.0,0.0,0.0,0.0,0.0,0.0,0.0,0.0,0.0,0.0,0.0,0.0,0.0,0.0,0.0,0.0,0.0,0.0,0.0,0.0,0.0,0.0,0.0
S2_D1 hbo,0.0,0.0,0.0,0.0,0.0,0.0,0.0,0.0,0.0,0.0,0.0,0.0,0.0,0.0,0.0,0.0,0.0,0.0,0.0,0.0,0.0,0.0,0.0,0.0,0.0,0.0,0.0,0.0,0.0,0.0,0.0,0.0,0.0,0.0,0.0,0.0,0.0,0.0,0.0,0.0,0.0,0.0,0.0,0.0,0.0,0.0,0.0,0.0,0.0,0.0,0.0,0.0
S2_D2 hbo,0.0,0.0,0.0,0.0,0.0,0.0,0.0,0.0,0.0,0.0,0.0,0.0,0.0,0.0,0.0,0.0,0.0,0.0,0.0,0.0,0.0,0.0,0.0,0.0,0.0,0.0,0.0,0.0,0.0,0.0,0.0,0.0,0.0,0.0,0.0,0.0,0.0,0.0,0.0,0.0,0.0,0.0,0.0,0.0,0.0,0.0,0.0,0.0,0.0,0.0,0.0,0.0
S2_D4 hbo,0.0,0.0,0.0,0.0,0.04504504504504504,0.0,0.0,0.04504504504504504,0.0,0.0,0.04504504504504504,0.04504504504504504,0.0,0.0,0.0,0.0,0.0,0.0,0.0,0.0,0.0,0.0,0.04504504504504504,0.0,0.04504504504504504,0.036036036036036036,0.0,0.0,0.0,0.04504504504504504,0.036036036036036036,0.04504504504504504,0.0,0.04504504504504504,0.04504504504504504,0.04504504504504504,0.04504504504504504,0.04504504504504504,0.036036036036036036,0.04504504504504504,0.0,0.04504504504504504,0.04504504504504504,0.04504504504504504,0.036036036036036036,0.018018018018018018,0.018018018018018018,0.0,0.018018018018018018,0.0,0.0,0.036036036036036036
S3_D1 hbo,0.0,0.0,0.0,0.0,0.0,0.0,0.0,0.0,0.0,0.0,0.0,0.0,0.0,0.0,0.0,0.0,0.0,0.0,0.0,0.0,0.0,0.0,0.0,0.0,0.0,0.0,0.0,0.0,0.0,0.0,0.0,0.0,0.0,0.0,0.0,0.0,0.0,0.0,0.0,0.0,0.0,0.0,0.0,0.0,0.0,0.0,0.0,0.0,0.0,0.0,0.0,0.0
S3_D3 hbo,0.0,0.0,0.0,0.0,0.0,0.0,0.0,0.0,0.0,0.0,0.0,0.0,0.0,0.0,0.0,0.0,0.0,0.0,0.0,0.0,0.0,0.0,0.0,0.0,0.0,0.0,0.0,0.0,0.0,0.0,0.0,0.0,0.0,0.0,0.0,0.0,0.0,0.0,0.0,0.0,0.0,0.0,0.0,0.0,0.0,0.0,0.0,0.0,0.0,0.0,0.0,0.0
S3_D4 hbo,0.0,0.0,0.0,0.0,0.0425531914893617,0.0,0.0,0.0425531914893617,0.0,0.0,0.0425531914893617,0.0425531914893617,0.0,0.0,0.0,0.0,0.0,0.0,0.0,0.0,0.0,0.0,0.0425531914893617,0.0,0.0425531914893617,0.0425531914893617,0.0,0.0,0.0,0.0425531914893617,0.0425531914893617,0.0425531914893617,0.0,0.0425531914893617,0.0425531914893617,0.0425531914893617,0.0425531914893617,0.0425531914893617,0.0425531914893617,0.0425531914893617,0.0,0.0425531914893617,0.0425531914893617,0.0425531914893617,0.0425531914893617,0.02127659574468085,0.02127659574468085,0.0,0.02127659574468085,0.0,0.0,0.0425531914893617
S3_D5 hbo,0.0,0.0,0.0,0.0,0.0,0.0,0.0,0.0,0.0,0.0,0.0,0.0,0.0,0.0,0.0,0.0,0.0,0.0,0.0,0.0,0.0,0.0,0.0,0.0,0.0,0.0,0.0,0.0,0.0,0.0,0.0,0.0,0.0,0.0,0.0,0.0,0.0,0.0,0.0,0.0,0.0,0.0,0.0,0.0,0.0,0.0,0.0,0.0,0.0,0.0,0.0,0.0
S4_D2 hbo,0.0,0.0,0.0,0.0,0.0,0.0,0.0,0.0,0.0,0.0,0.0,0.0,0.0,0.0,0.0,0.0,0.0,0.0,0.0,0.0,0.0,0.0,0.0,0.0,0.0,0.0,0.0,0.0,0.0,0.0,0.0,0.0,0.0,0.0,0.0,0.0,0.0,0.0,0.0,0.0,0.0,0.0,0.0,0.0,0.0,0.0,0.0,0.0,0.0,0.0,0.0,0.0
S4_D4 hbo,0.0,0.0,0.0,0.0,0.0425531914893617,0.0,0.0,0.03546099290780142,0.0,0.0,0.04964539007092199,0.04964539007092199,0.0,0.0,0.0,0.0,0.0,0.0,0.0,0.0,0.0,0.0,0.04964539007092199,0.0,0.0425531914893617,0.028368794326241134,0.0,0.0,0.0,0.04964539007092199,0.028368794326241134,0.04964539007092199,0.0,0.04964539007092199,0.04964539007092199,0.04964539007092199,0.04964539007092199,0.04964539007092199,0.028368794326241134,0.04964539007092199,0.0,0.04964539007092199,0.04964539007092199,0.04964539007092199,0.028368794326241134,0.014184397163120567,0.014184397163120567,0.0,0.014184397163120567,0.0,0.0,0.028368794326241134
S4_D6 hbo,0.0,0.0,0.0,0.0,0.036585365853658534,0.0,0.0,0.03048780487804878,0.0,0.0,0.04878048780487805,0.054878048780487805,0.0,0.0,0.0,0.0,0.0,0.0,0.0,0.0,0.0,0.0,0.054878048780487805,0.0,0.036585365853658534,0.024390243902439025,0.0,0.0,0.0,0.042682926829268296,0.024390243902439025,0.054878048780487805,0.0,0.04878048780487805,0.054878048780487805,0.054878048780487805,0.054878048780487805,0.054878048780487805,0.024390243902439025,0.054878048780487805,0.0,0.054878048780487805,0.04878048780487805,0.054878048780487805,0.024390243902439025,0.012195121951219513,0.012195121951219513,0.0,0.012195121951219513,0.0,0.0,0.024390243902439025
S4_D11 hbo,0.0,0.0,0.0,0.0,0.0,0.0,0.0,0.0,0.0,0.0,0.0,0.0,0.0,0.0,0.0,0.0,0.0,0.0,0.0,0.0,0.0,0.0,0.0,0.0,0.0,0.0,0.0,0.0,0.0,0.0,0.0,0.0,0.0,0.0,0.0,0.0,0.0,0.0,0.0,0.0,0.0,0.0,0.0,0.0,0.0,0.0,0.0,0.0,0.0,0.0,0.0,0.0
S5_D3 hbo,0.0,0.0,0.0,0.0,0.0,0.0,0.0,0.0,0.0,0.0,0.0,0.0,0.0,0.0,0.0,0.0,0.0,0.0,0.0,0.0,0.0,0.0,0.0,0.0,0.0,0.0,0.0,0.0,0.0,0.0,0.0,0.0,0.0,0.0,0.0,0.0,0.0,0.0,0.0,0.0,0.0,0.0,0.0,0.0,0.0,0.0,0.0,0.0,0.0,0.0,0.0,0.0
S5_D5 hbo,0.0,0.0,0.0,0.0,0.0,0.0,0.0,0.0,0.0,0.0,0.0,0.0,0.0,0.0,0.0,0.0,0.0,0.0,0.0,0.0,0.0,0.0,0.0,0.0,0.0,0.0,0.0,0.0,0.0,0.0,0.0,0.0,0.0,0.0,0.0,0.0,0.0,0.0,0.0,0.0,0.0,0.0,0.0,0.0,0.0,0.0,0.0,0.0,0.0,0.0,0.0,0.0
S5_D7 hbo,0.0,0.0,0.0,0.0,0.0,0.0,0.0,0.0,0.0,0.0,0.0,0.0,0.0,0.0,0.0,0.0,0.0,0.0,0.0,0.0,0.0,0.0,0.0,0.0,0.0,0.0,0.0,0.0,0.0,0.0,0.0,0.0,0.0,0.0,0.0,0.0,0.0,0.0,0.0,0.0,0.0,0.0,0.0,0.0,0.0,0.0,0.0,0.0,0.0,0.0,0.0,0.0
S6_D4 hbo,0.0,0.0,0.0,0.0,0.0,0.0,0.0,0.0,0.0,0.0,0.0,0.0,0.0,0.0,0.0,0.0,0.0,0.0,0.0,0.0,0.0,0.0,0.0,0.0,0.0,0.0,0.0,0.0,0.0,0.0,0.0,0.0,0.0,0.0,0.0,0.0,0.0,0.0,0.0,0.0,0.0,0.0,0.0,0.0,0.0,0.0,0.0,0.0,0.0,0.0,0.0,0.0
S6_D5 hbo,0.0,0.0,0.0,0.0,0.0,0.0,0.0,0.0,0.0,0.0,0.0,0.0,0.0,0.0,0.0,0.0,0.0,0.0,0.0,0.0,0.0,0.0,0.0,0.0,0.0,0.0,0.0,0.0,0.0,0.0,0.0,0.0,0.0,0.0,0.0,0.0,0.0,0.0,0.0,0.0,0.0,0.0,0.0,0.0,0.0,0.0,0.0,0.0,0.0,0.0,0.0,0.0
S6_D6 hbo,0.0,0.0,0.0,0.0,0.0,0.0,0.0,0.0,0.0,0.0,0.0,0.0,0.0,0.0,0.0,0.0,0.0,0.0,0.0,0.0,0.0,0.0,0.0,0.0,0.0,0.0,0.0,0.0,0.0,0.0,0.0,0.0,0.0,0.0,0.0,0.0,0.0,0.0,0.0,0.0,0.0,0.0,0.0,0.0,0.0,0.0,0.0,0.0,0.0,0.0,0.0,0.0
S6_D8 hbo,0.0,0.0,0.0,0.0,0.0,0.0,0.0,0.0,0.0,0.0,0.0,0.0,0.0,0.0,0.0,0.0,0.0,0.0,0.0,0.0,0.0,0.0,0.0,0.0,0.0,0.0,0.0,0.0,0.0,0.0,0.0,0.0,0.0,0.0,0.0,0.0,0.0,0.0,0.0,0.0,0.0,0.0,0.0,0.0,0.0,0.0,0.0,0.0,0.0,0.0,0.0,0.0
S7_D5 hbo,0.0,0.0,0.0,0.0,0.0,0.0,0.0,0.0,0.0,0.0,0.0,0.0,0.0,0.0,0.0,0.0,0.0,0.0,0.0,0.0,0.0,0.0,0.0,0.0,0.0,0.0,0.0,0.0,0.0,0.0,0.0,0.0,0.0,0.0,0.0,0.0,0.0,0.0,0.0,0.0,0.0,0.0,0.0,0.0,0.0,0.0,0.0,0.0,0.0,0.0,0.0,0.0
S7_D7 hbo,0.0,0.0,0.0,0.0,0.0,0.0,0.0,0.0,0.0,0.0,0.0,0.0,0.0,0.0,0.0,0.0,0.0,0.0,0.0,0.0,0.0,0.0,0.0,0.0,0.0,0.0,0.0,0.0,0.0,0.0,0.0,0.0,0.0,0.0,0.0,0.0,0.0,0.0,0.0,0.0,0.0,0.0,0.0,0.0,0.0,0.0,0.0,0.0,0.0,0.0,0.0,0.0
S7_D8 hbo,0.0,0.0,0.0,0.0,0.030612244897959183,0.0,0.0,0.025510204081632654,0.0,0.0,0.04081632653061224,0.05102040816326531,0.0,0.0,0.0,0.0,0.0,0.0,0.0,0.0,0.0,0.0,0.07142857142857142,0.0,0.030612244897959183,0.02040816326530612,0.0,0.0,0.0,0.03571428571428571,0.02040816326530612,0.04591836734693878,0.0,0.04081632653061224,0.07142857142857142,0.0663265306122449,0.061224489795918366,0.07142857142857142,0.02040816326530612,0.061224489795918366,0.0,0.05102040816326531,0.04081632653061224,0.07142857142857142,0.02040816326530612,0.01020408163265306,0.01020408163265306,0.0,0.01020408163265306,0.0,0.0,0.02040816326530612
S8_D6 hbo,0.0,0.0,0.0,0.0,0.0,0.0,0.0,0.0,0.0,0.0,0.0,0.0,0.0,0.0,0.0,0.0,0.0,0.0,0.0,0.0,0.0,0.0,0.0,0.0,0.0,0.0,0.0,0.0,0.0,0.0,0.0,0.0,0.0,0.0,0.0,0.0,0.0,0.0,0.0,0.0,0.0,0.0,0.0,0.0,0.0,0.0,0.0,0.0,0.0,0.0,0.0,0.0
S8_D8 hbo,0.0,0.0,0.0,0.0,0.04504504504504504,0.0,0.0,0.04504504504504504,0.0,0.0,0.04504504504504504,0.04504504504504504,0.0,0.0,0.0,0.0,0.0,0.0,0.0,0.0,0.0,0.0,0.04504504504504504,0.0,0.04504504504504504,0.036036036036036036,0.0,0.0,0.0,0.04504504504504504,0.036036036036036036,0.04504504504504504,0.0,0.04504504504504504,0.04504504504504504,0.04504504504504504,0.04504504504504504,0.04504504504504504,0.036036036036036036,0.04504504504504504,0.0,0.04504504504504504,0.04504504504504504,0.04504504504504504,0.036036036036036036,0.018018018018018018,0.018018018018018018,0.0,0.018018018018018018,0.0,0.0,0.036036036036036036
S8_D15 hbo,0.0,0.0,0.0,0.0,0.041666666666666664,0.0,0.0,0.041666666666666664,0.0,0.0,0.041666666666666664,0.041666666666666664,0.0,0.0,0.0,0.0,0.0,0.0,0.0,0.0,0.0,0.0,0.041666666666666664,0.0,0.041666666666666664,0.041666666666666664,0.0,0.0,0.0,0.041666666666666664,0.041666666666666664,0.041666666666666664,0.0,0.041666666666666664,0.041666666666666664,0.041666666666666664,0.041666666666666664,0.041666666666666664,0.041666666666666664,0.041666666666666664,0.0,0.041666666666666664,0.041666666666666664,0.041666666666666664,0.041666666666666664,0.027777777777777776,0.027777777777777776,0.0,0.027777777777777776,0.0,0.0,0.041666666666666664
S9_D2 hbo,0.0,0.0,0.0,0.0,0.0,0.0,0.0,0.0,0.0,0.0,0.0,0.0,0.0,0.0,0.0,0.0,0.0,0.0,0.0,0.0,0.0,0.0,0.0,0.0,0.0,0.0,0.0,0.0,0.0,0.0,0.0,0.0,0.0,0.0,0.0,0.0,0.0,0.0,0.0,0.0,0.0,0.0,0.0,0.0,0.0,0.0,0.0,0.0,0.0,0.0,0.0,0.0
S9_D9 hbo,0.0,0.0,0.0,0.0,0.0,0.0,0.0,0.0,0.0,0.0,0.0,0.0,0.0,0.0,0.0,0.0,0.0,0.0,0.0,0.0,0.0,0.0,0.0,0.0,0.0,0.0,0.0,0.0,0.0,0.0,0.0,0.0,0.0,0.0,0.0,0.0,0.0,0.0,0.0,0.0,0.0,0.0,0.0,0.0,0.0,0.0,0.0,0.0,0.0,0.0,0.0,0.0
S9_D11 hbo,0.0,0.0,0.0,0.0,0.0,0.0,0.0,0.0,0.0,0.0,0.0,0.0,0.0,0.0,0.0,0.0,0.0,0.0,0.0,0.0,0.0,0.0,0.0,0.0,0.0,0.0,0.0,0.0,0.0,0.0,0.0,0.0,0.0,0.0,0.0,0.0,0.0,0.0,0.0,0.0,0.0,0.0,0.0,0.0,0.0,0.0,0.0,0.0,0.0,0.0,0.0,0.0
S10_D9 hbo,0.0,0.0,0.0,0.0,0.047244094488188976,0.0,0.0,0.03937007874015748,0.0,0.0,0.047244094488188976,0.047244094488188976,0.0,0.0,0.0,0.0,0.0,0.0,0.0,0.0,0.0,0.0,0.047244094488188976,0.0,0.047244094488188976,0.031496062992125984,0.0,0.0,0.0,0.047244094488188976,0.031496062992125984,0.047244094488188976,0.0,0.047244094488188976,0.047244094488188976,0.047244094488188976,0.047244094488188976,0.047244094488188976,0.031496062992125984,0.047244094488188976,0.0,0.047244094488188976,0.047244094488188976,0.047244094488188976,0.031496062992125984,0.015748031496062992,0.015748031496062992,0.0,0.015748031496062992,0.0,0.0,0.031496062992125984
S10_D10 hbo,0.0,0.0,0.0,0.0,0.041666666666666664,0.0,0.0,0.041666666666666664,0.0,0.0,0.041666666666666664,0.041666666666666664,0.0,0.0,0.0,0.0,0.0,0.0,0.0,0.0,0.0,0.0,0.041666666666666664,0.0,0.041666666666666664,0.041666666666666664,0.0,0.0,0.0,0.041666666666666664,0.041666666666666664,0.041666666666666664,0.0,0.041666666666666664,0.041666666666666664,0.041666666666666664,0.041666666666666664,0.041666666666666664,0.041666666666666664,0.041666666666666664,0.0,0.041666666666666664,0.041666666666666664,0.041666666666666664,0.041666666666666664,0.027777777777777776,0.027777777777777776,0.0,0.027777777777777776,0.0,0.0,0.041666666666666664
S10_D12 hbo,0.0,0.0,0.0,0.0,0.03896103896103896,0.0,0.0,0.032467532467532464,0.0,0.0,0.05194805194805195,0.05194805194805195,0.0,0.0,0.0,0.0,0.0,0.0,0.0,0.0,0.0,0.0,0.05194805194805195,0.0,0.03896103896103896,0.025974025974025976,0.0,0.0,0.0,0.045454545454545456,0.025974025974025976,0.05194805194805195,0.0,0.05194805194805195,0.05194805194805195,0.05194805194805195,0.05194805194805195,0.05194805194805195,0.025974025974025976,0.05194805194805195,0.0,0.05194805194805195,0.05194805194805195,0.05194805194805195,0.025974025974025976,0.012987012987012988,0.012987012987012988,0.0,0.012987012987012988,0.0,0.0,0.025974025974025976
S11_D9 hbo,0.0,0.0,0.0,0.0,0.0,0.0,0.0,0.0,0.0,0.0,0.0,0.0,0.0,0.0,0.0,0.0,0.0,0.0,0.0,0.0,0.0,0.0,0.0,0.0,0.0,0.0,0.0,0.0,0.0,0.0,0.0,0.0,0.0,0.0,0.0,0.0,0.0,0.0,0.0,0.0,0.0,0.0,0.0,0.0,0.0,0.0,0.0,0.0,0.0,0.0,0.0,0.0
S11_D11 hbo,0.0,0.0,0.0,0.0,0.0425531914893617,0.0,0.0,0.03546099290780142,0.0,0.0,0.04964539007092199,0.04964539007092199,0.0,0.0,0.0,0.0,0.0,0.0,0.0,0.0,0.0,0.0,0.04964539007092199,0.0,0.0425531914893617,0.028368794326241134,0.0,0.0,0.0,0.04964539007092199,0.028368794326241134,0.04964539007092199,0.0,0.04964539007092199,0.04964539007092199,0.04964539007092199,0.04964539007092199,0.04964539007092199,0.028368794326241134,0.04964539007092199,0.0,0.04964539007092199,0.04964539007092199,0.04964539007092199,0.028368794326241134,0.014184397163120567,0.014184397163120567,0.0,0.014184397163120567,0.0,0.0,0.028368794326241134
S11_D12 hbo,0.0,0.0,0.0,0.0,0.03125,0.0,0.0,0.026041666666666668,0.0,0.0,0.041666666666666664,0.052083333333333336,0.0,0.0,0.0,0.0,0.0,0.0,0.0,0.0,0.0,0.0,0.06770833333333333,0.0,0.03125,0.020833333333333332,0.0,0.0,0.0,0.036458333333333336,0.020833333333333332,0.046875,0.0,0.041666666666666664,0.06770833333333333,0.06770833333333333,0.0625,0.06770833333333333,0.020833333333333332,0.0625,0.0,0.052083333333333336,0.041666666666666664,0.06770833333333333,0.020833333333333332,0.010416666666666666,0.010416666666666666,0.0,0.010416666666666666,0.0,0.0,0.020833333333333332
S11_D13 hbo,0.0,0.0,0.0,0.0,0.03208556149732621,0.0,0.0,0.026737967914438502,0.0,0.0,0.0427807486631016,0.053475935828877004,0.0,0.0,0.0,0.0,0.0,0.0,0.0,0.0,0.0,0.0,0.06417112299465241,0.0,0.03208556149732621,0.0213903743315508,0.0,0.0,0.0,0.0374331550802139,0.0213903743315508,0.0481283422459893,0.0,0.0427807486631016,0.06417112299465241,0.06417112299465241,0.06417112299465241,0.06417112299465241,0.0213903743315508,0.06417112299465241,0.0,0.053475935828877004,0.0427807486631016,0.06417112299465241,0.0213903743315508,0.0106951871657754,0.0106951871657754,0.0,0.0106951871657754,0.0,0.0,0.0213903743315508
S12_D10 hbo,0.0,0.0,0.0,0.0,0.03333333333333333,0.0,0.0,0.027777777777777776,0.0,0.0,0.044444444444444446,0.05555555555555555,0.0,0.0,0.0,0.0,0.0,0.0,0.0,0.0,0.0,0.0,0.06111111111111111,0.0,0.03333333333333333,0.022222222222222223,0.0,0.0,0.0,0.03888888888888889,0.022222222222222223,0.05,0.0,0.044444444444444446,0.06111111111111111,0.06111111111111111,0.06111111111111111,0.06111111111111111,0.022222222222222223,0.06111111111111111,0.0,0.05555555555555555,0.044444444444444446,0.06111111111111111,0.022222222222222223,0.011111111111111112,0.011111111111111112,0.0,0.011111111111111112,0.0,0.0,0.022222222222222223
S12_D12 hbo,0.0,0.0,0.0,0.0,0.03125,0.0,0.0,0.026041666666666668,0.0,0.0,0.041666666666666664,0.052083333333333336,0.0,0.0,0.0,0.0,0.0,0.0,0.0,0.0,0.0,0.0,0.06770833333333333,0.0,0.03125,0.020833333333333332,0.0,0.0,0.0,0.036458333333333336,0.020833333333333332,0.046875,0.0,0.041666666666666664,0.06770833333333333,0.06770833333333333,0.0625,0.06770833333333333,0.020833333333333332,0.0625,0.0,0.052083333333333336,0.041666666666666664,0.06770833333333333,0.020833333333333332,0.010416666666666666,0.010416666666666666,0.0,0.010416666666666666,0.0,0.0,0.020833333333333332
S12_D14 hbo,0.0,0.0,0.0,0.0,0.041666666666666664,0.0,0.0,0.041666666666666664,0.0,0.0,0.041666666666666664,0.041666666666666664,0.0,0.0,0.0,0.0,0.0,0.0,0.0,0.0,0.0,0.0,0.041666666666666664,0.0,0.041666666666666664,0.041666666666666664,0.0,0.0,0.0,0.041666666666666664,0.041666666666666664,0.041666666666666664,0.0,0.041666666666666664,0.041666666666666664,0.041666666666666664,0.041666666666666664,0.041666666666666664,0.041666666666666664,0.041666666666666664,0.0,0.041666666666666664,0.041666666666666664,0.041666666666666664,0.041666666666666664,0.027777777777777776,0.027777777777777776,0.0,0.027777777777777776,0.0,0.0,0.041666666666666664
S13_D6 hbo,0.0,0.0,0.0,0.0,0.03333333333333333,0.0,0.0,0.027777777777777776,0.0,0.0,0.044444444444444446,0.05555555555555555,0.0,0.0,0.0,0.0,0.0,0.0,0.0,0.0,0.0,0.0,0.06111111111111111,0.0,0.03333333333333333,0.022222222222222223,0.0,0.0,0.0,0.03888888888888889,0.022222222222222223,0.05,0.0,0.044444444444444446,0.06111111111111111,0.06111111111111111,0.06111111111111111,0.06111111111111111,0.022222222222222223,0.06111111111111111,0.0,0.05555555555555555,0.044444444444444446,0.06111111111111111,0.022222222222222223,0.011111111111111112,0.011111111111111112,0.0,0.011111111111111112,0.0,0.0,0.022222222222222223
S13_D11 hbo,0.0,0.0,0.0,0.0,0.0,0.0,0.0,0.0,0.0,0.0,0.0,0.0,0.0,0.0,0.0,0.0,0.0,0.0,0.0,0.0,0.0,0.0,0.0,0.0,0.0,0.0,0.0,0.0,0.0,0.0,0.0,0.0,0.0,0.0,0.0,0.0,0.0,0.0,0.0,0.0,0.0,0.0,0.0,0.0,0.0,0.0,0.0,0.0,0.0,0.0,0.0,0.0
S13_D13 hbo,0.0,0.0,0.0,0.0,0.036585365853658534,0.0,0.0,0.03048780487804878,0.0,0.0,0.04878048780487805,0.054878048780487805,0.0,0.0,0.0,0.0,0.0,0.0,0.0,0.0,0.0,0.0,0.054878048780487805,0.0,0.036585365853658534,0.024390243902439025,0.0,0.0,0.0,0.042682926829268296,0.024390243902439025,0.054878048780487805,0.0,0.04878048780487805,0.054878048780487805,0.054878048780487805,0.054878048780487805,0.054878048780487805,0.024390243902439025,0.054878048780487805,0.0,0.054878048780487805,0.04878048780487805,0.054878048780487805,0.024390243902439025,0.012195121951219513,0.012195121951219513,0.0,0.012195121951219513,0.0,0.0,0.024390243902439025
S13_D15 hbo,0.0,0.0,0.0,0.0,0.0425531914893617,0.0,0.0,0.03546099290780142,0.0,0.0,0.04964539007092199,0.04964539007092199,0.0,0.0,0.0,0.0,0.0,0.0,0.0,0.0,0.0,0.0,0.04964539007092199,0.0,0.0425531914893617,0.028368794326241134,0.0,0.0,0.0,0.04964539007092199,0.028368794326241134,0.04964539007092199,0.0,0.04964539007092199,0.04964539007092199,0.04964539007092199,0.04964539007092199,0.04964539007092199,0.028368794326241134,0.04964539007092199,0.0,0.04964539007092199,0.04964539007092199,0.04964539007092199,0.028368794326241134,0.014184397163120567,0.014184397163120567,0.0,0.014184397163120567,0.0,0.0,0.028368794326241134
S14_D12 hbo,0.0,0.0,0.0,0.0,0.030612244897959183,0.0,0.0,0.025510204081632654,0.0,0.0,0.04081632653061224,0.05102040816326531,0.0,0.0,0.0,0.0,0.0,0.0,0.0,0.0,0.0,0.0,0.07142857142857142,0.0,0.030612244897959183,0.02040816326530612,0.0,0.0,0.0,0.03571428571428571,0.02040816326530612,0.04591836734693878,0.0,0.04081632653061224,0.07142857142857142,0.0663265306122449,0.061224489795918366,0.07142857142857142,0.02040816326530612,0.061224489795918366,0.0,0.05102040816326531,0.04081632653061224,0.07142857142857142,0.02040816326530612,0.01020408163265306,0.01020408163265306,0.0,0.01020408163265306,0.0,0.0,0.02040816326530612
S14_D13 hbo,0.0,0.0,0.0,0.0,0.041666666666666664,0.0,0.0,0.041666666666666664,0.0,0.0,0.041666666666666664,0.041666666666666664,0.0,0.0,0.0,0.0,0.0,0.0,0.0,0.0,0.0,0.0,0.041666666666666664,0.0,0.041666666666666664,0.041666666666666664,0.0,0.0,0.0,0.041666666666666664,0.041666666666666664,0.041666666666666664,0.0,0.041666666666666664,0.041666666666666664,0.041666666666666664,0.041666666666666664,0.041666666666666664,0.041666666666666664,0.041666666666666664,0.0,0.041666666666666664,0.041666666666666664,0.041666666666666664,0.041666666666666664,0.027777777777777776,0.027777777777777776,0.0,0.027777777777777776,0.0,0.0,0.041666666666666664
S14_D14 hbo,0.0,0.0,0.0,0.0,0.04,0.0,0.0,0.04,0.0,0.0,0.04,0.04,0.0,0.0,0.0,0.0,0.0,0.0,0.0,0.0,0.0,0.0,0.04,0.0,0.04,0.04,0.0,0.0,0.0,0.04,0.04,0.04,0.0,0.04,0.04,0.04,0.04,0.04,0.04,0.04,0.0,0.04,0.04,0.04,0.04,0.04,0.04,0.0,0.04,0.0,0.0,0.04
S14_D16 hbo,0.0,0.0,0.0,0.0,0.04,0.0,0.0,0.04,0.0,0.0,0.04,0.04,0.0,0.0,0.0,0.0,0.0,0.0,0.0,0.0,0.0,0.0,0.04,0.0,0.04,0.04,0.0,0.0,0.0,0.04,0.04,0.04,0.0,0.04,0.04,0.04,0.04,0.04,0.04,0.04,0.0,0.04,0.04,0.04,0.04,0.04,0.04,0.0,0.04,0.0,0.0,0.04
S15_D13 hbo,0.0,0.0,0.0,0.0,0.0,0.0,0.0,0.0,0.0,0.0,0.0,0.0,0.0,0.0,0.0,0.0,0.0,0.0,0.0,0.0,0.0,0.0,0.0,0.0,0.0,0.0,0.0,0.0,0.0,0.0,0.0,0.0,0.0,0.0,0.0,0.0,0.0,0.0,0.0,0.0,0.0,0.0,0.0,0.0,0.0,0.0,0.0,0.0,0.0,0.0,0.0,0.0
S15_D15 hbo,0.0,0.0,0.0,0.0,0.04,0.0,0.0,0.04,0.0,0.0,0.04,0.04,0.0,0.0,0.0,0.0,0.0,0.0,0.0,0.0,0.0,0.0,0.04,0.0,0.04,0.04,0.0,0.0,0.0,0.04,0.04,0.04,0.0,0.04,0.04,0.04,0.04,0.04,0.04,0.04,0.0,0.04,0.04,0.04,0.04,0.04,0.04,0.0,0.04,0.0,0.0,0.04
S15_D16 hbo,0.0,0.0,0.0,0.0,0.0,0.0,0.0,0.0,0.0,0.0,0.0,0.0,0.0,0.0,0.0,0.0,0.0,0.0,0.0,0.0,0.0,0.0,0.0,0.0,0.0,0.0,0.0,0.0,0.0,0.0,0.0,0.0,0.0,0.0,0.0,0.0,0.0,0.0,0.0,0.0,0.0,0.0,0.0,0.0,0.0,0.0,0.0,0.0,0.0,0.0,0.0,0.0
S16_D14 hbo,0.0,0.0,0.0,0.0,0.0,0.0,0.0,0.0,0.0,0.0,0.0,0.0,0.0,0.0,0.0,0.0,0.0,0.0,0.0,0.0,0.0,0.0,0.0,0.0,0.0,0.0,0.0,0.0,0.0,0.0,0.0,0.0,0.0,0.0,0.0,0.0,0.0,0.0,0.0,0.0,0.0,0.0,0.0,0.0,0.0,0.0,0.0,0.0,0.0,0.0,0.0,0.0
S16_D16 hbo,0.0,0.0,0.0,0.0,0.041666666666666664,0.0,0.0,0.041666666666666664,0.0,0.0,0.041666666666666664,0.041666666666666664,0.0,0.0,0.0,0.0,0.0,0.0,0.0,0.0,0.0,0.0,0.041666666666666664,0.0,0.041666666666666664,0.041666666666666664,0.0,0.0,0.0,0.041666666666666664,0.041666666666666664,0.041666666666666664,0.0,0.041666666666666664,0.041666666666666664,0.041666666666666664,0.041666666666666664,0.041666666666666664,0.041666666666666664,0.041666666666666664,0.0,0.041666666666666664,0.041666666666666664,0.041666666666666664,0.041666666666666664,0.027777777777777776,0.027777777777777776,0.0,0.027777777777777776,0.0,0.0,0.041666666666666664
