,S1_D1 hbo,S1_D3 hbo,S2_D1 hbo,S2_D2 hbo,S2_D4 hbo,S3_D1 hbo,S3_D3 hbo,S3_D4 hbo,S3_D5 hbo,S4_D2 hbo,S4_D4 hbo,S4_D6 hbo,S4_D11 hbo,S5_D3 hbo,S5_D5 hbo,S5_D7 hbo,S6_D4 hbo,S6_D5 hbo,S6_D6 hbo,S6_D8 hbo,S7_D5 hbo,S7_D7 hbo,S7_D8 hbo,S8_D6 hbo,S8_D8 hbo,S8_D15 hbo,S9_D2 hbo,S9_D9 hbo,S9_D11 hbo,S10_D9 hbo,S10_D10 hbo,S10_D12 hbo,S11_D9 hbo,S11_D11 hbo,S11_D12 hbo,S11_D13 hbo,S12_D10 hbo,S12_D12 hbo,S12_D14 hbo,S13_D6 hbo,S13_D11 hbo,S13_D13 hbo,S13_D15 hbo,S14_D12 hbo,S14_D13 hbo,S14_D14 hbo,S14_D16 hbo,S15_D13 hbo,S15_D15 hbo,S15_D16 hbo,S16_D14 hbo,S16_D16 hbo
S1_D1 hbo,0.08918781725888325,0.010947546531302877,0.01428087986463621,0.05602368866328257,0.010947546531302877,0.010947546531302877,0.020947546531302878,0.010947546531302877,0.020947546531302878,0.02903553299492386,0.026971235194585448,0.010947546531302877,0.010947546531302877,0.01428087986463621,0.010947546531302877,0.02602368866328257,0.017614213197969544,0.01428087986463621,0.010947546531302877,0.03983079526226735,0.0,0.07269035532994923,0.0,0.010947546531302877,0.019830795262267345,0.02856175972927242,0.020947546531302878,0.010947546531302877,0.010947546531302877,0.010947546531302877,0.010947546531302877,0.016023688663282572,0.010947546531302877,0.010947546531302877,0.010947546531302877,0.020947546531302878,0.005871404399323181,0.013485617597292724,0.010947546531302877,0.016818950930626058,0.010947546531302877,0.031099830795262268,0.022690355329949237,0.010947546531302877,0.020947546531302878,0.010947546531302877,0.014754653130287648,0.029830795262267347,0.017614213197969544,0.010947546531302877,0.027614213197969542,0.020947546531302878
S1_D3 hbo,0.0066844919786096255,0.02411027106767472,0.015627881246542505,0.007836990595611285,0.02434077079107505,0.02434077079107505,0.021205974552830534,0.02434077079107505,0.021205974552830534,0.016088880693343167,0.01899317720818735,0.023003872395353127,0.023003872395353127,0.022773372671952792,0.02434077079107505,0.016088880693343167,0.02434077079107505,0.02434077079107505,0.023003872395353127,0.014982482021021575,0.004010695187165776,0.006269592476489028,0.0,0.023003872395353127,0.014982482021021575,0.018762677484787018,0.020099575880508945,0.023003872395353127,0.02434077079107505,0.02434077079107505,0.020330075603909273,0.01899317720818735,0.0216669739996312,0.020330075603909273,0.018762677484787018,0.018762677484787018,0.012078185506177393,0.0163193804167435,0.018762677484787018,0.0216669739996312,0.02434077079107505,0.020330075603909273,0.020330075603909273,0.022773372671952792,0.02434077079107505,0.020330075603909273,0.020330075603909273,0.020330075603909273,0.020330075603909273,0.018762677484787018,0.020330075603909273,0.020330075603909273
S2_D1 hbo,0.012729285262492094,0.017784102888467213,0.022838920514442335,0.014336917562724014,0.02072527935905545,0.02072527935905545,0.022517394054395953,0.02072527935905545,0.021046805819101837,0.019897744043854103,0.019576217583807717,0.02072527935905545,0.02072527935905545,0.022517394054395953,0.02072527935905545,0.016635041113219482,0.022517394054395953,0.022517394054395953,0.02072527935905545,0.01874868226860637,0.0,0.010752688172043012,0.0,0.02072527935905545,0.013372338182584861,0.021046805819101837,0.022517394054395953,0.02072527935905545,0.02072527935905545,0.02072527935905545,0.02072527935905545,0.017784102888467213,0.02072527935905545,0.019254691123761332,0.019254691123761332,0.022517394054395953,0.011901749947290744,0.014842926417878979,0.02072527935905545,0.021046805819101837,0.02072527935905545,0.022517394054395953,0.021046805819101837,0.02072527935905545,0.022517394054395953,0.02072527935905545,0.02072527935905545,0.021046805819101837,0.022517394054395953,0.02072527935905545,0.026101623445076955,0.022517394054395953
S2_D2 hbo,0.040925589836660614,0.007957559681697613,0.006631299734748011,0.0909674717297222,0.007957559681697613,0.007957559681697613,0.010610079575596816,0.007957559681697613,0.010610079575596816,0.047452184838754706,0.04086276699706827,0.007957559681697613,0.007957559681697613,0.009283819628647215,0.007957559681697613,0.03562055004886221,0.010610079575596816,0.009283819628647215,0.007957559681697613,0.07644143515286891,0.0,0.0777886360463493,0.0,0.007957559681697613,0.06058913862906603,0.027725813206756947,0.011936339522546418,0.007957559681697613,0.007957559681697613,0.007957559681697613,0.007957559681697613,0.018483875471171297,0.007957559681697613,0.007957559681697613,0.007957559681697613,0.011936339522546418,0.007957559681697613,0.018483875471171297,0.007957559681697613,0.014546977523384057,0.007957559681697613,0.03825212899623063,0.02376797431243892,0.007957559681697613,0.030357392154125362,0.007957559681697613,0.015852296523802878,0.04877844478570431,0.010610079575596816,0.007957559681697613,0.014588859416445624,0.011936339522546418
S2_D4 hbo,0.00580046403712297,0.017637288420399536,0.01369168029264068,0.006963788300835654,0.025063174970432173,0.026223267777856767,0.019724809182506187,0.026455932630599303,0.019724809182506187,0.014157009998125756,0.01949537578605174,0.02390308216300758,0.02390308216300758,0.02227765965009791,0.027616025438023897,0.014157009998125756,0.027616025438023897,0.027616025438023897,0.024135747015750116,0.01462233970361083,0.004640371229698376,0.005571030640668524,0.0,0.024135747015750116,0.016015097363777958,0.01647719561297494,0.021117566842673317,0.02390308216300758,0.026455932630599303,0.026455932630599303,0.019030046080566666,0.01810261812588461,0.02019013888799126,0.020655468593476334,0.01647719561297494,0.019957474035248723,0.010676731575851974,0.01578243251103542,0.017637288420399536,0.020422803740733797,0.02390308216300758,0.02158289654815839,0.017869953273142072,0.021117566842673317,0.026455932630599303,0.02158289654815839,0.02019013888799126,0.020655468593476334,0.020422803740733797,0.01879738122782413,0.022742989355582985,0.02019013888799126
S3_D1 hbo,0.00563063063063063,0.017365554970011795,0.013453913523551405,0.006963788300835654,0.02465557479485056,0.02803395317322894,0.019351175688223043,0.02942671083339607,0.019351175688223043,0.013987176591633416,0.019291575698260933,0.023529448668724435,0.023529448668724435,0.0218700594745163,0.030552836959522198,0.013987176591633416,0.030552836959522198,0.02717445858114382,0.02379608020276544,0.014520439659715426,0.006756756756756757,0.005571030640668524,0.0,0.02379608020276544,0.015913197319882555,0.01623942884388567,0.020743933348390173,0.023529448668724435,0.02604833245501769,0.02604833245501769,0.018758312630178926,0.017898818038093803,0.01988443875630505,0.020417701824387062,0.01623942884388567,0.01961780722226405,0.010608798213255038,0.015646565785841553,0.017365554970011795,0.020151070290346056,0.023529448668724435,0.02127719641647218,0.0176321865040528,0.020743933348390173,0.02604833245501769,0.02127719641647218,0.01988443875630505,0.020417701824387062,0.020151070290346056,0.01849168109613792,0.02240332254259831,0.01988443875630505
S3_D3 hbo,0.00880465344414278,0.018217239020952933,0.014096426326224673,0.01032448377581121,0.022901079770367455,0.024072039957721083,0.024679972090388455,0.022901079770367455,0.02615489834407577,0.01617928471257936,0.01735024489993299,0.021730119583013824,0.021730119583013824,0.02437600602405477,0.024072039957721083,0.020604063473641306,0.027021892465095714,0.02437600602405477,0.020559159395660193,0.0138373643378721,0.00468384074941452,0.0058997050147492625,0.0,0.020559159395660193,0.012362438084184784,0.022945983848348568,0.02498393815672214,0.021730119583013824,0.022901079770367455,0.022901079770367455,0.018217239020952933,0.015875318646245674,0.01938819920830656,0.017046278833599306,0.017046278833599306,0.023812977969368508,0.011191477896831153,0.013533398271538414,0.018217239020952933,0.01969216527464025,0.021730119583013824,0.025287904223055824,0.019996131340973937,0.021730119583013824,0.027325858531429402,0.01938819920830656,0.01938819920830656,0.022945983848348568,0.021167091528327565,0.01938819920830656,0.020863125461993877,0.023812977969368508
S3_D4 hbo,0.005668934240362812,0.017244681705561427,0.013386099217161888,0.006811989100817439,0.02450462473817865,0.027905985282396337,0.019283644429615623,0.03312696559095936,0.019283644429615623,0.013843321161343737,0.02178909711023374,0.023370837890106088,0.023370837890106088,0.021779829097851672,0.03176456777079588,0.013843321161343737,0.03176456777079588,0.02586702255834214,0.023599448862197014,0.014300543105525589,0.006802721088435374,0.005449591280653951,0.0,0.023599448862197014,0.017025338745852565,0.016110894857488862,0.01951225540170655,0.023370837890106088,0.02586702255834214,0.027229420378505627,0.018607079525724914,0.017701903649743275,0.019740866373797475,0.020198088317979326,0.016110894857488862,0.018378468553633988,0.01044196061712605,0.015434329953598152,0.017244681705561427,0.0199694773458884,0.023370837890106088,0.021103264193960962,0.017473292677652352,0.02064604224977911,0.02586702255834214,0.021103264193960962,0.019740866373797475,0.020198088317979326,0.0199694773458884,0.018378468553633988,0.021103264193960962,0.019740866373797475
S3_D5 hbo,0.008991937773235679,0.018480667688639072,0.01434309884744223,0.01023391812865497,0.0221214443876682,0.024548628853687617,0.025045420995855334,0.024548628853687617,0.0265074092999489,0.016301879293703515,0.017515471526713223,0.020907852154658492,0.020907852154658492,0.023583432691761767,0.024548628853687617,0.022149832510077783,0.02747260546187475,0.023583432691761767,0.020907852154658492,0.013874694827684097,0.006067961165048544,0.005847953216374269,0.0,0.020907852154658492,0.01241270652359053,0.023115028672003633,0.024080224833929485,0.020907852154658492,0.0221214443876682,0.0221214443876682,0.018480667688639072,0.016053483222619656,0.019694259921648784,0.017267075455629364,0.017267075455629364,0.022866632600919774,0.01119911429058082,0.013626298756600238,0.018480667688639072,0.01994265599273264,0.0221214443876682,0.025790609209106908,0.020191052063816498,0.0221214443876682,0.0265074092999489,0.018480667688639072,0.018480667688639072,0.0245770169760972,0.021404644296826206,0.018480667688639072,0.01994265599273264,0.022866632600919774
S4_D2 hbo,0.022141226522776798,0.015312078447649684,0.01395338279547577,0.0313213396285151,0.016670774099823597,0.016670774099823597,0.016670774099823597,0.016670774099823597,0.016670774099823597,0.033542596243644286,0.031155961398775554,0.016670774099823597,0.016670774099823597,0.016670774099823597,0.016670774099823597,0.02399605686416935,0.019388165404171424,0.01802946975199751,0.016670774099823597,0.03625998754799211,0.0,0.02724525267199336,0.0,0.016670774099823597,0.032183900591470374,0.025189374286603713,0.01802946975199751,0.016670774099823597,0.016670774099823597,0.016670774099823597,0.016670774099823597,0.021444043789561065,0.016670774099823597,0.016670774099823597,0.015312078447649684,0.01802946975199751,0.010538808757912212,0.019057408944692333,0.015312078447649684,0.020416104596866245,0.016670774099823597,0.030128022206080733,0.02535475251634326,0.015312078447649684,0.02058148282660579,0.016670774099823597,0.0202507263671267,0.02893470478364636,0.019388165404171424,0.015312078447649684,0.020746861056345337,0.019388165404171424
S4_D4 hbo,0.01708902623038922,0.014732631927075798,0.012257384402323322,0.02327714504227041,0.01825172078794518,0.01825172078794518,0.017014097025568945,0.021964592075073897,0.017014097025568945,0.025364827714504226,0.03364062919861924,0.01825172078794518,0.01825172078794518,0.017014097025568945,0.020726968312697658,0.024514768804646644,0.023202215837450132,0.020726968312697658,0.01948934455032142,0.028883916575373612,0.0010438413361169101,0.019564273755141692,0.0,0.01948934455032142,0.03012154033774985,0.023470927468529735,0.01825172078794518,0.01825172078794518,0.01948934455032142,0.020726968312697658,0.015970255689452036,0.020339403460179005,0.017014097025568945,0.01844550321420451,0.014732631927075798,0.01720787945182827,0.009513425246491247,0.01825172078794518,0.014732631927075798,0.02157702722255524,0.01825172078794518,0.03012154033774985,0.02366470989478906,0.015776473263192706,0.025096116083424626,0.01720787945182827,0.019101779697802766,0.03135916410012609,0.01968312697658075,0.014732631927075798,0.01844550321420451,0.01844550321420451
S4_D6 hbo,0.00719468889918172,0.017285780453913848,0.013484637949668057,0.007874015748031496,0.024616334722865525,0.024616334722865525,0.02081519221861973,0.024752200092635478,0.019638721630384437,0.015068704647213216,0.020182183109464256,0.02343986413463023,0.02343986413463023,0.023303998764860275,0.025928670680870774,0.015068704647213216,0.027241006638876023,0.02841747722711132,0.023575729504400185,0.015340435386753126,0.0035294117647058825,0.005249343832020997,0.0,0.023575729504400185,0.015340435386753126,0.017421645823683805,0.02212752817662498,0.02343986413463023,0.025928670680870774,0.025928670680870774,0.018598116411919097,0.017557511193453758,0.019774587000154394,0.020046317739694303,0.016109309865678555,0.020951057588389686,0.010226956924502085,0.01520457001698317,0.017285780453913848,0.021222788327929596,0.02343986413463023,0.022399258916164892,0.018733981781689054,0.02081519221861973,0.027241006638876023,0.021086922958159643,0.019774587000154394,0.021358653697699553,0.021222788327929596,0.018462251042149144,0.023575729504400185,0.021086922958159643
S4_D11 hbo,0.00719468889918172,0.017285780453913848,0.013484637949668057,0.007874015748031496,0.024616334722865525,0.024616334722865525,0.02081519221861973,0.024752200092635478,0.019638721630384437,0.015068704647213216,0.020182183109464256,0.02343986413463023,0.02343986413463023,0.023303998764860275,0.025928670680870774,0.015068704647213216,0.027241006638876023,0.02841747722711132,0.023575729504400185,0.015340435386753126,0.0035294117647058825,0.005249343832020997,0.0,0.023575729504400185,0.015340435386753126,0.017421645823683805,0.02212752817662498,0.02343986413463023,0.025928670680870774,0.025928670680870774,0.018598116411919097,0.017557511193453758,0.019774587000154394,0.020046317739694303,0.016109309865678555,0.020951057588389686,0.010226956924502085,0.01520457001698317,0.017285780453913848,0.021222788327929596,0.02343986413463023,0.022399258916164892,0.018733981781689054,0.02081519221861973,0.027241006638876023,0.021086922958159643,0.019774587000154394,0.021358653697699553,0.021222788327929596,0.018462251042149144,0.023575729504400185,0.021086922958159643
S5_D3 hbo,0.008609452801167913,0.017707708751531583,0.013738627180062045,0.009831460674157303,0.02375257436325243,0.024912667170677024,0.022592481555827836,0.02375257436325243,0.022592481555827836,0.015631924711280273,0.01819651190072734,0.022592481555827836,0.022592481555827836,0.02375257436325243,0.024912667170677024,0.017036419093302745,0.027721655934721968,0.026317161552699496,0.021432388748403242,0.014716233478453557,0.004640371229698376,0.0056179775280898875,0.0,0.021432388748403242,0.013311739096431085,0.019356604708151932,0.023996975937850308,0.022592481555827836,0.02375257436325243,0.02375257436325243,0.019112203133554054,0.016792017518704867,0.02027229594097865,0.01795211032612946,0.01654761594410699,0.022836883130425714,0.010747151906984019,0.014471831903855679,0.017707708751531583,0.020516697515576526,0.022592481555827836,0.023081284705023592,0.020761099090174404,0.021187987173805364,0.026561563127297374,0.02027229594097865,0.02027229594097865,0.020761099090174404,0.021921191897598998,0.018867801558956176,0.022836883130425714,0.023081284705023592
S5_D5 hbo,0.0056179775280898875,0.017163150965924745,0.013314759819979795,0.006811989100817439,0.02438232862872363,0.027753115145577566,0.019171539662615193,0.03296390411168601,0.019171539662615193,0.013792364449070813,0.021727949055506228,0.023258733123105654,0.023258733123105654,0.021657532988396656,0.031601506291522516,0.013792364449070813,0.031601506291522516,0.0268683219545051,0.023497535437651165,0.014269969078161835,0.006741573033707865,0.005449591280653951,0.0,0.023497535437651165,0.01699476471848881,0.01603955546030677,0.02053393748277868,0.023258733123105654,0.02574472644888712,0.027107124269050608,0.018525548786088235,0.017640755595015767,0.01964914429170621,0.020126748920797233,0.01603955546030677,0.0194103419771607,0.010421577932216881,0.015393564583779811,0.017163150965924745,0.019887946606251723,0.023258733123105654,0.0210115421118697,0.017401953280470256,0.02053393748277868,0.02574472644888712,0.0210115421118697,0.01964914429170621,0.020126748920797233,0.019887946606251723,0.01828674647154272,0.022135137617487678,0.01964914429170621
S5_D7 hbo,0.017636390307653325,0.016749569925453747,0.011582007547974983,0.023073999493245494,0.01808646832117567,0.01808646832117567,0.019423366716897594,0.01808646832117567,0.020760265112619518,0.024320882286262953,0.028151546268019786,0.01808646832117567,0.01808646832117567,0.01808646832117567,0.01808646832117567,0.032162241455185564,0.020760265112619518,0.019423366716897594,0.01808646832117567,0.028151546268019786,0.0024937655860349127,0.01906330430607972,0.0,0.01808646832117567,0.026814647872297863,0.02708469468041127,0.019513382319602063,0.01808646832117567,0.01808646832117567,0.01808646832117567,0.015592702735140757,0.02058023390721058,0.016839585528158212,0.015592702735140757,0.014255804339418834,0.018266499526584608,0.010515155960366465,0.019333351114193126,0.014255804339418834,0.02067024950991505,0.01808646832117567,0.033499139850907494,0.02450091349167189,0.016749569925453747,0.02708469468041127,0.015592702735140757,0.019333351114193126,0.035992905436942405,0.018266499526584608,0.014255804339418834,0.016929601130862684,0.01960339792230653
S6_D4 hbo,0.008033436465287955,0.016235140856538023,0.012696086413721979,0.008454106280193236,0.023144981816208,0.026515768333061934,0.022021386310590023,0.031262552244477014,0.022021386310590023,0.014072083808283124,0.02123432665689627,0.022021386310590023,0.022021386310590023,0.021937252347608967,0.030054822775877982,0.01648754274548119,0.032470281713076046,0.026684036259024047,0.02210552027357108,0.014240351734245236,0.006741573033707865,0.004830917874396135,0.0,0.02210552027357108,0.015448081202844272,0.018734733756717147,0.023229115779189055,0.022021386310590023,0.024352711284807035,0.02556044075340607,0.017442870325137055,0.016403408782500135,0.01856646583075503,0.018734733756717147,0.015111545350920047,0.02210552027357108,0.009493567822830158,0.01415621777126418,0.016235140856538023,0.019858329262335127,0.022021386310590023,0.023397383705151167,0.018734733756717147,0.019605927373391955,0.027975899690604135,0.019774195299354067,0.01856646583075503,0.022357922162514247,0.02106605873093416,0.017358736362156,0.02210552027357108,0.022189654236552135
S6_D5 hbo,0.008261234244481979,0.01670056185584778,0.013058265255707606,0.008706467661691543,0.023807061689244312,0.02496179610032976,0.021408546183631496,0.026294623878299037,0.021408546183631496,0.014480139717118794,0.020609998506313697,0.022652327278158857,0.022652327278158857,0.022563280594716947,0.02744935828938449,0.015723920811646155,0.02993692047843921,0.02744935828938449,0.022741373961600773,0.014658233084002619,0.004618937644341801,0.004975124378109453,0.0,0.022741373961600773,0.015902014178529985,0.018033389633817058,0.022652327278158857,0.022652327278158857,0.025050842783771673,0.026294623878299037,0.017944342950375145,0.016878655222731607,0.019099077361460597,0.019277170728344423,0.015545827444762333,0.022652327278158857,0.00977215538933508,0.014569186400560707,0.01670056185584778,0.02043190513942987,0.022652327278158857,0.022830420645042683,0.019277170728344423,0.02016476508910413,0.027538404972826398,0.020342858455987958,0.019099077361460597,0.021764732917399148,0.021675686233957235,0.017855296266933232,0.02389610837268622,0.02158663955051532
S6_D6 hbo,0.007230231944367723,0.01725312563295218,0.0134814978487298,0.007751937984496124,0.024587698785345585,0.024587698785345585,0.020816071001123204,0.02598402965745395,0.019628422545066193,0.014982169928863847,0.021337777041251605,0.023400050329288578,0.023400050329288578,0.023295709121262897,0.02717167811351096,0.014982169928863847,0.028463667777593647,0.02717167811351096,0.023504391537314255,0.015190852344915207,0.0035629453681710215,0.00516795865633075,0.0,0.023504391537314255,0.016482842008997894,0.01735746684097786,0.02092041220914888,0.023400050329288578,0.02587968844942827,0.02717167811351096,0.01854511529703487,0.017461808049003543,0.019732763753091874,0.019941446169143236,0.016065477176895174,0.019732763753091874,0.01012723489661014,0.015086511136889528,0.01725312563295218,0.021129094625200243,0.023400050329288578,0.02231674308125725,0.01864945650506055,0.020816071001123204,0.02717167811351096,0.021024753417174562,0.019732763753091874,0.02123343583322592,0.021129094625200243,0.01844077408900919,0.02231674308125725,0.021024753417174562
S6_D8 hbo,0.026698998748435544,0.012377972465581977,0.011201501877346684,0.0472090112640801,0.014730913642052566,0.014730913642052566,0.013554443053817273,0.01590738423028786,0.013554443053817273,0.033347934918648306,0.033041301627033795,0.014730913642052566,0.014730913642052566,0.013554443053817273,0.01590738423028786,0.026698998748435544,0.018260325406758447,0.017083854818523155,0.01590738423028786,0.0510450563204005,0.0,0.04102002503128911,0.0,0.01590738423028786,0.04117334167709637,0.022709637046307886,0.014730913642052566,0.014730913642052566,0.01590738423028786,0.01590738423028786,0.013554443053817273,0.020050062578222776,0.013554443053817273,0.01590738423028786,0.012377972465581977,0.014730913642052566,0.009718397997496872,0.020050062578222776,0.012377972465581977,0.018566958698372965,0.014730913642052566,0.030381727158948685,0.022556320400500623,0.012377972465581977,0.02756883604505632,0.014730913642052566,0.01754380475594493,0.03687734668335419,0.017083854818523155,0.012377972465581977,0.020613266583229036,0.01590738423028786
S7_D5 hbo,0.0,0.008771929824561403,0.0,0.0,0.013157894736842105,0.02631578947368421,0.013157894736842105,0.03070175438596491,0.017543859649122806,0.0,0.0,0.008771929824561403,0.008771929824561403,0.013157894736842105,0.03070175438596491,0.0043859649122807015,0.03070175438596491,0.013157894736842105,0.008771929824561403,0.0,0.14912280701754385,0.0,0.02631578947368421,0.008771929824561403,0.0,0.0,0.0043859649122807015,0.008771929824561403,0.013157894736842105,0.013157894736842105,0.0,0.0,0.0043859649122807015,0.0,0.0,0.0,0.0,0.0,0.0,0.0043859649122807015,0.013157894736842105,0.0,0.0,0.013157894736842105,0.013157894736842105,0.0,0.0,0.0,0.0,0.0,0.0,0.0
S7_D7 hbo,0.048796857096087734,0.008389261744966443,0.008389261744966443,0.07882632182026518,0.008389261744966443,0.008389261744966443,0.008389261744966443,0.008389261744966443,0.008389261744966443,0.04421345555737437,0.03765755442789327,0.008389261744966443,0.008389261744966443,0.008389261744966443,0.008389261744966443,0.030340481257161565,0.008389261744966443,0.008389261744966443,0.008389261744966443,0.07043706007529874,0.0,0.11740055655590113,0.0,0.008389261744966443,0.057169749549844495,0.02302340808642986,0.008389261744966443,0.008389261744966443,0.008389261744966443,0.008389261744966443,0.008389261744966443,0.018145359305942053,0.008389261744966443,0.008389261744966443,0.008389261744966443,0.008389261744966443,0.008389261744966443,0.018145359305942053,0.008389261744966443,0.013267310525454247,0.008389261744966443,0.03277950564740547,0.020584383696185954,0.008389261744966443,0.02790145686691766,0.008389261744966443,0.01570633491569815,0.0620477983303323,0.008389261744966443,0.008389261744966443,0.015100671140939598,0.008389261744966443
S7_D8 hbo,0.0,0.0,0.0,0.0,0.0,0.0,0.0,0.0,0.0,0.0,0.0,0.0,0.0,0.0,0.0,0.0,0.0,0.0,0.0,0.0,0.3,0.0,0.2,0.0,0.0,0.0,0.0,0.0,0.0,0.0,0.0,0.0,0.0,0.0,0.0,0.0,0.0,0.0,0.0,0.0,0.0,0.0,0.0,0.0,0.0,0.0,0.0,0.0,0.0,0.0,0.0,0.0
S8_D6 hbo,0.0059382422802850355,0.017720365730647836,0.01379299124719357,0.00684931506849315,0.02521068558227313,0.02521068558227313,0.01991344808512023,0.02676276315361338,0.01872579962906322,0.014157420362476816,0.020824520873328343,0.024023037126216118,0.024023037126216118,0.022470959554875866,0.027950411609670385,0.014157420362476816,0.027950411609670385,0.026580548595971757,0.024205251683857742,0.014521849477760062,0.0035629453681710215,0.005479452054794521,0.0,0.024205251683857742,0.017261575505157323,0.01653271727459083,0.02009566264276185,0.024023037126216118,0.026580548595971757,0.027950411609670385,0.019090228744346467,0.018084794845931083,0.020277877200403475,0.02064230631568672,0.01653271727459083,0.018908014186704843,0.010594474994305794,0.015709497933817068,0.017720365730647836,0.0204600917580451,0.024023037126216118,0.021647740214102103,0.017902580288289463,0.02128331109881886,0.026580548595971757,0.021647740214102103,0.020277877200403475,0.02064230631568672,0.0204600917580451,0.018908014186704843,0.021647740214102103,0.020277877200403475
S8_D8 hbo,0.01899651870582714,0.013161673542864748,0.010590979455461148,0.037684834305807526,0.015732367630268345,0.015732367630268345,0.013161673542864748,0.019588408761373743,0.013161673542864748,0.033520590068855376,0.0372225296470374,0.015732367630268345,0.015732367630268345,0.014447020586566547,0.018303061717671945,0.02670860096803794,0.019588408761373743,0.018303061717671945,0.017017714673970147,0.045628068897403395,0.0,0.032389344578076955,0.0,0.017017714673970147,0.04418862030077821,0.022621407507547472,0.014447020586566547,0.015732367630268345,0.017017714673970147,0.018303061717671945,0.014447020586566547,0.021181958910922297,0.014447020586566547,0.017017714673970147,0.013161673542864748,0.014447020586566547,0.010436877902537773,0.021181958910922297,0.013161673542864748,0.01974251031429712,0.015732367630268345,0.030641692875605024,0.022544356731085784,0.013161673542864748,0.025115050818489387,0.015732367630268345,0.01853421404705701,0.034651835559633797,0.017017714673970147,0.013161673542864748,0.017017714673970147,0.015732367630268345
S8_D15 hbo,0.01656268568033274,0.014965834818775996,0.01344944543473955,0.017460140621905325,0.018617548029312734,0.018617548029312734,0.01995444642503466,0.018617548029312734,0.02013393741334918,0.023247177658942363,0.025741483462071696,0.018617548029312734,0.018617548029312734,0.018617548029312734,0.018617548029312734,0.02627995642701525,0.021291344820756584,0.01995444642503466,0.018617548029312734,0.022269261239849472,0.0,0.01344944543473955,0.0,0.018617548029312734,0.02093236284412755,0.028415280253515546,0.021291344820756584,0.018617548029312734,0.018617548029312734,0.018617548029312734,0.018617548029312734,0.02093236284412755,0.018617548029312734,0.017460140621905325,0.0161232422261834,0.021291344820756584,0.010336205189146366,0.018617548029312734,0.01728064963359081,0.021111853832442067,0.018617548029312734,0.033403891859774215,0.024763567042978808,0.01728064963359081,0.022628243216478508,0.018617548029312734,0.022089770251534954,0.0322464844523668,0.021291344820756584,0.01728064963359081,0.01995444642503466,0.022628243216478508
S9_D2 hbo,0.008763378954805955,0.017794991233349905,0.013885981210582786,0.009433962264150943,0.02278347682725774,0.02278347682725774,0.02291759348912674,0.02156988459424803,0.023051710150995733,0.015501923429199486,0.018063224557087903,0.02278347682725774,0.02278347682725774,0.02278347682725774,0.02278347682725774,0.019545050113835605,0.02547889461701515,0.025344777955146156,0.02156988459424803,0.014422447858058777,0.0024271844660194173,0.005390835579514825,0.0,0.02156988459424803,0.01307473896318007,0.021972234579855025,0.02547889461701515,0.02278347682725774,0.02278347682725774,0.02278347682725774,0.019142700128228614,0.016715515662209197,0.020356292361238322,0.017929107895218906,0.016581399000340197,0.02547889461701515,0.010513437835291656,0.014288331196189778,0.017794991233349905,0.02049040902310732,0.02156988459424803,0.025747127940753147,0.020624525684976316,0.020222175699369325,0.026826603511893858,0.020356292361238322,0.020356292361238322,0.023319943474733727,0.021838117917986025,0.019008583466359617,0.024131185722136447,0.02439941904587444
S9_D9 hbo,0.00719468889918172,0.017285780453913848,0.013484637949668057,0.007874015748031496,0.024616334722865525,0.024616334722865525,0.02081519221861973,0.024752200092635478,0.019638721630384437,0.015068704647213216,0.020182183109464256,0.02343986413463023,0.02343986413463023,0.023303998764860275,0.025928670680870774,0.015068704647213216,0.027241006638876023,0.02841747722711132,0.023575729504400185,0.015340435386753126,0.0035294117647058825,0.005249343832020997,0.0,0.023575729504400185,0.015340435386753126,0.017421645823683805,0.02212752817662498,0.02343986413463023,0.025928670680870774,0.025928670680870774,0.018598116411919097,0.017557511193453758,0.019774587000154394,0.020046317739694303,0.016109309865678555,0.020951057588389686,0.010226956924502085,0.01520457001698317,0.017285780453913848,0.021222788327929596,0.02343986413463023,0.022399258916164892,0.018733981781689054,0.02081519221861973,0.027241006638876023,0.021086922958159643,0.019774587000154394,0.021358653697699553,0.021222788327929596,0.018462251042149144,0.023575729504400185,0.021086922958159643
S9_D11 hbo,0.007092453701205657,0.017032680443892875,0.013288608308302908,0.007751937984496124,0.024257031001756628,0.025417123809181222,0.020512958866166657,0.026841010329921998,0.020512958866166657,0.01484439168570178,0.021172443149457126,0.023096938194332034,0.023096938194332034,0.022965041337673936,0.028001103137346592,0.01484439168570178,0.029293092801429284,0.028001103137346592,0.023228835050990125,0.015108185399017968,0.004640371229698376,0.00516795865633075,0.0,0.023228835050990125,0.016400175063100653,0.017164577300550966,0.021804948530249342,0.023096938194332034,0.025549020665839313,0.026841010329921998,0.01832467010797556,0.017296474157209064,0.019484762915400154,0.019748556628716343,0.01587258763646828,0.020644855722824748,0.010072123599345312,0.014976288542359875,0.017032680443892875,0.020908649436140937,0.023096938194332034,0.02206874224356553,0.01845656696463366,0.020512958866166657,0.026841010329921998,0.020776752579482846,0.019484762915400154,0.02104054629279903,0.020908649436140937,0.01819277325131747,0.023228835050990125,0.020776752579482846
S10_D9 hbo,0.00580046403712297,0.017455129380377677,0.013570240932626109,0.006811989100817439,0.02482029625040303,0.025980389057827624,0.019573009982487972,0.02890748971089349,0.019573009982487972,0.013974850958103895,0.021946932866345928,0.023660203442978436,0.023660203442978436,0.022095500610076053,0.0287051846981546,0.013974850958103895,0.0287051846981546,0.02734278687799111,0.02386250845571733,0.014379460983581683,0.004640371229698376,0.005449591280653951,0.0,0.02386250845571733,0.01710425662390866,0.016295036572953083,0.02093540780265146,0.023660203442978436,0.026182694070566517,0.027545091890730004,0.018817527200541168,0.017859739405855467,0.01997762000796576,0.020382230033443548,0.016295036572953083,0.019775314995226865,0.010494572535830114,0.015539553791006277,0.017455129380377677,0.020179925020704655,0.023660203442978436,0.02134001782812925,0.017657434393116574,0.02093540780265146,0.026182694070566517,0.02134001782812925,0.01997762000796576,0.020382230033443548,0.020179925020704655,0.01861522218780227,0.022500110635553842,0.01997762000796576
S10_D10 hbo,0.006944444444444444,0.017003853564547207,0.015502569043031472,0.0072254335260115606,0.024060693641618495,0.024060693641618495,0.01833654463712267,0.022671804752729608,0.016947655748233783,0.015614964675658316,0.01989402697495183,0.024060693641618495,0.024060693641618495,0.021170520231213873,0.024060693641618495,0.014226075786769429,0.024060693641618495,0.024060693641618495,0.022671804752729608,0.015727360308285164,0.0,0.005780346820809248,0.0,0.022671804752729608,0.015727360308285164,0.018392742453436094,0.021170520231213873,0.024060693641618495,0.024060693641618495,0.024060693641618495,0.021226718047527297,0.01989402697495183,0.021226718047527297,0.02128291586384072,0.018392742453436094,0.021170520231213873,0.01144829800899165,0.01711624919717405,0.019781631342324982,0.02128291586384072,0.022671804752729608,0.024060693641618495,0.01983782915863841,0.019781631342324982,0.024060693641618495,0.024060693641618495,0.022615606936416184,0.02128291586384072,0.022671804752729608,0.021170520231213873,0.024060693641618495,0.022615606936416184
S10_D12 hbo,0.013089005235602094,0.016209949102364042,0.014733334305589988,0.0135082909186367,0.020304364946258514,0.020304364946258514,0.01612609196575712,0.021697122606425645,0.01612609196575712,0.02144555119660488,0.02693272470066648,0.020304364946258514,0.020304364946258514,0.017518849625924253,0.021697122606425645,0.02013665067304467,0.021697122606425645,0.021697122606425645,0.021697122606425645,0.021613265469818725,0.0,0.01211553325846957,0.0,0.021697122606425645,0.023006023129985856,0.0240633522437253,0.017518849625924253,0.020304364946258514,0.021697122606425645,0.021697122606425645,0.018911607286091384,0.02423106651693914,0.018911607286091384,0.021697122606425645,0.017518849625924253,0.017518849625924253,0.010974347008123206,0.021613265469818725,0.017518849625924253,0.022922165993378932,0.020304364946258514,0.02684886756405956,0.02414720938033222,0.017518849625924253,0.021697122606425645,0.020304364946258514,0.02283830885677201,0.028241625224226692,0.020304364946258514,0.017518849625924253,0.020304364946258514,0.018911607286091384
S11_D9 hbo,0.006157635467980296,0.018522736979982343,0.014401036475981663,0.0072254335260115606,0.025107491671175146,0.025107491671175146,0.019540704461972154,0.023875964577579088,0.018309177368376093,0.014828155699194167,0.01894985620319485,0.025107491671175146,0.025107491671175146,0.022217318260770523,0.025107491671175146,0.014828155699194167,0.025107491671175146,0.025107491671175146,0.023875964577579088,0.015255274922406675,0.0024630541871921183,0.005780346820809248,0.0,0.023875964577579088,0.015255274922406675,0.017291209886386286,0.020985791167174465,0.025107491671175146,0.025107491671175146,0.025107491671175146,0.019967823685184658,0.01894985620319485,0.02119935077878072,0.02018138329679091,0.017291209886386286,0.019754264073578404,0.01113357441840599,0.016486802016002732,0.018522736979982343,0.02141291039038697,0.023875964577579088,0.02264443748398303,0.018736296591588597,0.020985791167174465,0.025107491671175146,0.02264443748398303,0.02119935077878072,0.02018138329679091,0.02141291039038697,0.019754264073578404,0.02264443748398303,0.02119935077878072
S11_D11 hbo,0.008426966292134831,0.016646144374326613,0.015310912728951824,0.008253809450515622,0.022194859165768816,0.022194859165768816,0.018085270124672925,0.024934585193166076,0.016680775742650453,0.016646144374326613,0.023530090811143604,0.022194859165768816,0.022194859165768816,0.019455133138371557,0.024934585193166076,0.01524164999230414,0.024934585193166076,0.023564722179467444,0.023564722179467444,0.01657688163767893,0.0,0.0068839464368169925,0.0,0.023564722179467444,0.019316607665076188,0.019455133138371557,0.019455133138371557,0.022194859165768816,0.023564722179467444,0.024934585193166076,0.020824996152070188,0.020790364783746344,0.020824996152070188,0.022160227797444976,0.01805063875634908,0.019455133138371557,0.011028166846236724,0.0179813760197014,0.019455133138371557,0.022194859165768816,0.022194859165768816,0.023599353547791288,0.020824996152070188,0.019455133138371557,0.023564722179467444,0.022194859165768816,0.022229490534092657,0.023564722179467444,0.022194859165768816,0.019455133138371557,0.022194859165768816,0.020824996152070188
S11_D12 hbo,0.010226504394861393,0.01744421906693712,0.017478025693035835,0.010057471264367816,0.02182217714672076,0.02182217714672076,0.020385395537525355,0.02182217714672076,0.01891480730223124,0.018847194050033808,0.020317782285327924,0.02182217714672076,0.02182217714672076,0.02182217714672076,0.02182217714672076,0.015939824205544288,0.02325895875591616,0.02325895875591616,0.02182217714672076,0.017342799188640973,0.0,0.007183908045977011,0.0,0.02182217714672076,0.014469235970250169,0.02035158891142664,0.02182217714672076,0.02182217714672076,0.02182217714672076,0.02182217714672076,0.02182217714672076,0.01888100067613252,0.02182217714672076,0.02035158891142664,0.01891480730223124,0.02182217714672076,0.011561866125760649,0.015939824205544288,0.020385395537525355,0.02178837052062204,0.02182217714672076,0.02325895875591616,0.02178837052062204,0.020385395537525355,0.02325895875591616,0.02182217714672076,0.02182217714672076,0.02178837052062204,0.02325895875591616,0.020385395537525355,0.02469574036511156,0.02325895875591616
S11_D13 hbo,0.009526018882653586,0.016282974680747648,0.01495367710956947,0.009433962264150943,0.021729044231364056,0.021729044231364056,0.021710632907663528,0.020362924012784823,0.021692221583963,0.016264563357047117,0.018978392470505062,0.021729044231364056,0.021729044231364056,0.021729044231364056,0.021729044231364056,0.018941569823104003,0.02442446202112147,0.024442873344822,0.020362924012784823,0.014880031814767356,0.0,0.005390835579514825,0.0,0.020362924012784823,0.013532322919888647,0.02303993047884171,0.025790582239700703,0.021729044231364056,0.021729044231364056,0.021729044231364056,0.020362924012784823,0.017630683575626353,0.020362924012784823,0.01899680379420559,0.01764909489932688,0.02715670245827994,0.010818493806430707,0.014898443138467884,0.019015215117906117,0.020344512689084295,0.020362924012784823,0.027119879810878884,0.021692221583963,0.019015215117906117,0.025772170916000176,0.021729044231364056,0.021729044231364056,0.02438763937372041,0.023058341802542237,0.020381335336485354,0.025808993563401234,0.025772170916000176
S12_D10 hbo,0.01048951048951049,0.01989389920424403,0.016759102965999518,0.007836990595611285,0.02146129732336629,0.02146129732336629,0.018326501085121773,0.02146129732336629,0.018326501085121773,0.01989389920424403,0.02146129732336629,0.02146129732336629,0.02146129732336629,0.01989389920424403,0.02146129732336629,0.01989389920424403,0.02146129732336629,0.02146129732336629,0.02146129732336629,0.02146129732336629,0.0,0.006269592476489028,0.0,0.02146129732336629,0.02146129732336629,0.01989389920424403,0.01989389920424403,0.02146129732336629,0.02146129732336629,0.02146129732336629,0.02146129732336629,0.02146129732336629,0.02146129732336629,0.02146129732336629,0.01989389920424403,0.01989389920424403,0.016397395707740535,0.02146129732336629,0.01989389920424403,0.02146129732336629,0.02146129732336629,0.02146129732336629,0.02146129732336629,0.01989389920424403,0.02146129732336629,0.02146129732336629,0.02146129732336629,0.02146129732336629,0.02146129732336629,0.01989389920424403,0.02146129732336629,0.02146129732336629
S12_D12 hbo,0.0165016501650165,0.016607371043511038,0.013821855723176773,0.015214613383343904,0.0193928863638453,0.0193928863638453,0.015214613383343904,0.02078564402401243,0.015214613383343904,0.024858196126019284,0.029036469106520676,0.0193928863638453,0.0193928863638453,0.016607371043511038,0.02078564402401243,0.023208031109517635,0.02078564402401243,0.02078564402401243,0.02078564402401243,0.024343381413350247,0.0,0.013821855723176773,0.0,0.02078564402401243,0.025736139073517378,0.024858196126019284,0.016607371043511038,0.0193928863638453,0.02078564402401243,0.02078564402401243,0.01800012870367817,0.025993546429851896,0.01800012870367817,0.02078564402401243,0.016607371043511038,0.016607371043511038,0.011656875994006086,0.024343381413350247,0.016607371043511038,0.022693216396848598,0.0193928863638453,0.027643711446353546,0.024600788769684766,0.016607371043511038,0.02078564402401243,0.0193928863638453,0.022950623753183116,0.029036469106520676,0.0193928863638453,0.016607371043511038,0.0193928863638453,0.01800012870367817
S12_D14 hbo,0.006944444444444444,0.017737722048066874,0.01599181469871125,0.007836990595611285,0.0234717868338558,0.0234717868338558,0.018948101706722398,0.02208289794496691,0.017559212817833507,0.016348833159177987,0.019305120167189133,0.0234717868338558,0.0234717868338558,0.021904388714733544,0.0234717868338558,0.0149599442702891,0.0234717868338558,0.0234717868338558,0.02208289794496691,0.015138453500522467,0.0,0.006269592476489028,0.0,0.02208289794496691,0.015138453500522467,0.019126610936955765,0.021904388714733544,0.0234717868338558,0.0234717868338558,0.0234717868338558,0.02208289794496691,0.019305120167189133,0.02208289794496691,0.020694009056078023,0.019126610936955765,0.021904388714733544,0.012182166492511321,0.016527342389411354,0.020515499825844656,0.020694009056078023,0.02208289794496691,0.0234717868338558,0.020694009056078023,0.020515499825844656,0.0234717868338558,0.0234717868338558,0.0234717868338558,0.020694009056078023,0.02208289794496691,0.021904388714733544,0.0234717868338558,0.0234717868338558
S13_D6 hbo,0.011763127813936129,0.01681363286444118,0.013133645928103205,0.012302587071640189,0.021648354211864604,0.021648354211864604,0.02038572794923834,0.022910980474490868,0.019230993538152892,0.01807625912706744,0.023018872326031677,0.021648354211864604,0.021648354211864604,0.02038572794923834,0.022910980474490868,0.019338885389693704,0.025436232999743392,0.02417360673711713,0.022910980474490868,0.018292042830149065,0.0023094688221709007,0.008514708283761403,0.0,0.022910980474490868,0.018292042830149065,0.021648354211864604,0.020493619800779156,0.021648354211864604,0.022910980474490868,0.022910980474490868,0.01807625912706744,0.020493619800779156,0.019230993538152892,0.019446777241234517,0.01565889845335573,0.019338885389693704,0.009885226397928477,0.018184150978608253,0.01681363286444118,0.022910980474490868,0.021648354211864604,0.02532834114820258,0.022910980474490868,0.01912310168661208,0.025436232999743392,0.019338885389693704,0.02154046236032379,0.025436232999743392,0.02186413791494623,0.01681363286444118,0.020601511652319965,0.020601511652319965
S13_D11 hbo,0.00585480093676815,0.017724227459831828,0.013767751952143935,0.006963788300835654,0.025193583529580607,0.02636454371693424,0.019844350361725584,0.026586341189747738,0.019844350361725584,0.014211346897770937,0.019560580065625957,0.024022623342226976,0.024022623342226976,0.022408068209246346,0.02775730137710137,0.014211346897770937,0.02775730137710137,0.026586341189747738,0.02424442081504048,0.014654941843397938,0.00468384074941452,0.005571030640668524,0.0,0.02424442081504048,0.016047699503565067,0.016553267272478196,0.020066147834539087,0.024022623342226976,0.026586341189747738,0.026586341189747738,0.019116985119998958,0.018167822405458826,0.020287945307352586,0.02073154025297959,0.016553267272478196,0.018895187647185455,0.010698466335710047,0.015825902030751567,0.017724227459831828,0.02050974278016609,0.024022623342226976,0.021680702967519717,0.017946024932645327,0.021237108021892714,0.026586341189747738,0.021680702967519717,0.020287945307352586,0.02073154025297959,0.02050974278016609,0.018895187647185455,0.021680702967519717,0.020287945307352586
S13_D13 hbo,0.016499965979451588,0.01328259411541714,0.011873171395522896,0.02052654088783911,0.018716161704526675,0.018716161704526675,0.017710125487222853,0.018917854955821888,0.017911818738518066,0.022538613322446756,0.029179910380155327,0.018716161704526675,0.018716161704526675,0.017508432235927643,0.01992389117312571,0.02636349497953907,0.02233935011032378,0.02213765685902857,0.018917854955821888,0.02596010847694865,0.0,0.01690335248204201,0.0,0.018917854955821888,0.02596010847694865,0.025155765510940037,0.020929927390429533,0.018716161704526675,0.01992389117312571,0.01992389117312571,0.01650239601862382,0.019722197921830498,0.01650239601862382,0.017911818738518066,0.014288630332720964,0.020929927390429533,0.009258449246201849,0.017710125487222853,0.015294666550024788,0.01992389117312571,0.017710125487222853,0.034815171220560076,0.02294199982503718,0.015294666550024788,0.02656518823083428,0.018716161704526675,0.02052654088783911,0.03401082825455146,0.020125584424420924,0.01630070276732861,0.020929927390429533,0.021131620641724747
S13_D15 hbo,0.014145457336332453,0.014594144630807104,0.013209708176145186,0.017026502069274956,0.019458859507742808,0.019458859507742808,0.019458859507742808,0.019458859507742808,0.018298766700318214,0.020506780491548738,0.026531588175909032,0.019458859507742808,0.019458859507742808,0.01818659487669955,0.019458859507742808,0.024211402561059844,0.02200338876982932,0.020731124138786063,0.019458859507742808,0.02305130975363525,0.0,0.013209708176145186,0.0,0.019458859507742808,0.021779045122591996,0.025371495368484438,0.020731124138786063,0.019458859507742808,0.019458859507742808,0.019458859507742808,0.01818659487669955,0.021779045122591996,0.01818659487669955,0.018298766700318214,0.015754237438231698,0.020731124138786063,0.009953773401108729,0.019458859507742808,0.016914330245656292,0.021891216946210657,0.019458859507742808,0.031396303052844736,0.025371495368484438,0.016914330245656292,0.025595839015721766,0.019458859507742808,0.021666873298973332,0.030236210245420142,0.02200338876982932,0.016914330245656292,0.020731124138786063,0.02200338876982932
S14_D12 hbo,0.007321076596592197,0.018165335457773324,0.014061823950771598,0.008797653958944282,0.024315451867011888,0.02548641205436552,0.02167821601983421,0.024315451867011888,0.02167821601983421,0.01611873055553648,0.018755966402714156,0.023144491679658256,0.023144491679658256,0.024315451867011888,0.02548641205436552,0.01611873055553648,0.026952687714189565,0.025781727526835933,0.02197353149230463,0.015243085840653266,0.00468384074941452,0.005865102639296188,0.0,0.02197353149230463,0.013776810180829218,0.01846065093024374,0.02197353149230463,0.023144491679658256,0.024315451867011888,0.024315451867011888,0.01963161111759737,0.017289690742890107,0.020802571304950997,0.01846065093024374,0.016994375270419693,0.020802571304950997,0.011139574333651543,0.014947770368182848,0.018165335457773324,0.021097886777421415,0.023144491679658256,0.022268846964775046,0.019926926590067784,0.02167821601983421,0.025781727526835933,0.020802571304950997,0.020802571304950997,0.019926926590067784,0.021097886777421415,0.01933629564512695,0.022268846964775046,0.022268846964775046
S14_D13 hbo,0.00759558673227738,0.015510252920324864,0.012072670346051641,0.014630291608708875,0.022066338613101203,0.023105839652602243,0.021026837573600164,0.024464420147873388,0.022225878340986258,0.013590790569207836,0.02150545675725532,0.021026837573600164,0.021026837573600164,0.020867297845715112,0.025503921187374427,0.02030641598986923,0.02790200272214661,0.025503921187374427,0.021186377301485218,0.02014687626198418,0.004158004158004158,0.01415167242505372,0.0,0.021186377301485218,0.01926691495036819,0.01926691495036819,0.022225878340986258,0.021026837573600164,0.023265379380487297,0.024464420147873388,0.016709293687710954,0.015829332376094966,0.017748794727211994,0.0180678741829821,0.014470751880823824,0.021186377301485218,0.009273246683318626,0.013750330297092887,0.015510252920324864,0.01910737522248314,0.021026837573600164,0.02582300064314453,0.01910737522248314,0.018628756038827982,0.035178509998653885,0.018947835494598084,0.017748794727211994,0.03221954660803582,0.02030641598986923,0.016549753959825903,0.021186377301485218,0.02134591702937027
S14_D14 hbo,0.008180467826137117,0.016115773989789736,0.014864728447405613,0.007874015748031496,0.022861325026679355,0.022861325026679355,0.018863026737042488,0.022800034611058236,0.017489400363416112,0.016054483574168613,0.021365117821810733,0.022861325026679355,0.022861325026679355,0.021548989068674106,0.024173660984684604,0.014680857200542241,0.025485996942689854,0.02685962331631623,0.022800034611058236,0.015931902742926364,0.0,0.005249343832020997,0.0,0.022800034611058236,0.015931902742926364,0.01880173632142136,0.02292261544230048,0.022861325026679355,0.024173660984684604,0.024173660984684604,0.020175362695047737,0.018740445905800235,0.020175362695047737,0.02142640823743186,0.017489400363416112,0.02292261544230048,0.010621268495284244,0.01599319315854749,0.018863026737042488,0.02142640823743186,0.021487698653052986,0.024173660984684604,0.02011407227942661,0.018863026737042488,0.025485996942689854,0.022861325026679355,0.021548989068674106,0.02273874419543711,0.022800034611058236,0.020236653110668856,0.02554728735831098,0.022861325026679355
S14_D16 hbo,0.010588235294117647,0.01572934376062564,0.014015640938456309,0.011931315878952737,0.022148928935736143,0.022148928935736143,0.016637198231893913,0.020972458347500847,0.01546072764365862,0.019258755525331517,0.02332539952397144,0.022148928935736143,0.022148928935736143,0.019258755525331517,0.022148928935736143,0.018082284937096224,0.022148928935736143,0.02332539952397144,0.020972458347500847,0.019795987759265554,0.0,0.010486229173750423,0.0,0.020972458347500847,0.019795987759265554,0.02161169670180211,0.020435226113566813,0.022148928935736143,0.022148928935736143,0.022148928935736143,0.019527371642298536,0.02332539952397144,0.019527371642298536,0.019795987759265554,0.01690581434886093,0.020435226113566813,0.01102346140768446,0.020972458347500847,0.018082284937096224,0.022148928935736143,0.020972458347500847,0.02685481128867732,0.02305678340700442,0.018082284937096224,0.022148928935736143,0.022148928935736143,0.024233253995239713,0.024501870112206732,0.020972458347500847,0.019258755525331517,0.02332539952397144,0.02070384223053383
S15_D13 hbo,0.015303417589699896,0.013107071854586764,0.011720155258922655,0.02224983432736912,0.017476095806115685,0.017476095806115685,0.017476095806115685,0.019857048187068065,0.01767253621130361,0.02125579854208085,0.028999810659850418,0.017476095806115685,0.017476095806115685,0.016285619615639495,0.019857048187068065,0.02601770330398561,0.022238000568020447,0.019857048187068065,0.01866657199659188,0.02761289406418631,0.0,0.02861876360882325,0.0,0.01866657199659188,0.02681529868408596,0.024827227113509417,0.01866657199659188,0.017476095806115685,0.01866657199659188,0.019857048187068065,0.016285619615639495,0.01946416737669223,0.016285619615639495,0.01767253621130361,0.014101107639875037,0.01866657199659188,0.009130928713433684,0.017476095806115685,0.015095143425163306,0.019660607781880148,0.017476095806115685,0.03336883461137934,0.02264271513774496,0.015095143425163306,0.03019028685032661,0.017476095806115685,0.019267726971504306,0.04549370444002651,0.019857048187068065,0.015095143425163306,0.01866657199659188,0.019857048187068065
S15_D15 hbo,0.009407498631636563,0.015722495894909688,0.01464833059660646,0.008620689655172414,0.022352216748768472,0.022352216748768472,0.020963327859879585,0.022194854953475646,0.019574438970990697,0.015565134099616858,0.020648604269293925,0.022352216748768472,0.022352216748768472,0.021120689655172414,0.023583743842364533,0.01663929939792009,0.026046798029556652,0.024815270935960594,0.022194854953475646,0.015250410509031198,0.0,0.0049261083743842365,0.0,0.022194854953475646,0.015250410509031198,0.020805966064586755,0.023583743842364533,0.022352216748768472,0.023583743842364533,0.023583743842364533,0.019731800766283523,0.018185550082101806,0.019731800766283523,0.020805966064586755,0.017111384783798575,0.023583743842364533,0.010166940339354133,0.015407772304324028,0.018500273672687466,0.020805966064586755,0.020963327859879585,0.026046798029556652,0.020805966064586755,0.018500273672687466,0.02727832512315271,0.022352216748768472,0.021120689655172414,0.02450054734537493,0.023426382047071703,0.019889162561576357,0.023583743842364533,0.024815270935960594
S15_D16 hbo,0.006868131868131868,0.017646146956491783,0.015884977091873642,0.007836990595611285,0.02333442419649316,0.02333442419649316,0.018826001584622276,0.02196079782286679,0.0174523752109959,0.01627252058286541,0.01921354507561404,0.02333442419649316,0.02333442419649316,0.021767026077370903,0.02333442419649316,0.014898894209239039,0.02333442419649316,0.024708050570119537,0.02196079782286679,0.015092665954734921,0.0,0.006269592476489028,0.0,0.02196079782286679,0.015092665954734921,0.01901977333011816,0.02314065245099728,0.02333442419649316,0.02333442419649316,0.02333442419649316,0.02196079782286679,0.01921354507561404,0.02196079782286679,0.020587171449240417,0.01901977333011816,0.02314065245099728,0.01215164146198629,0.016466292328361293,0.020393399703744534,0.020587171449240417,0.02196079782286679,0.02333442419649316,0.020587171449240417,0.020393399703744534,0.02333442419649316,0.02333442419649316,0.02333442419649316,0.020587171449240417,0.02196079782286679,0.021767026077370903,0.024708050570119537,0.02333442419649316
S16_D14 hbo,0.015124439955455416,0.015305726050811902,0.015487012146168388,0.014218009478672985,0.021773754952995106,0.021773754952995106,0.019222800611193122,0.02159246885763862,0.017856680392613886,0.016309274078678167,0.020045062543702898,0.021773754952995106,0.021773754952995106,0.02058892082977236,0.022958589076217853,0.01494315386009893,0.02532825732266335,0.025509543418019837,0.02159246885763862,0.02068603838085619,0.0,0.01066350710900474,0.0,0.02159246885763862,0.014761867764742444,0.019041514515836636,0.023139875171574342,0.021773754952995106,0.022958589076217853,0.022958589076217853,0.019222800611193122,0.017675394297257403,0.019222800611193122,0.020226348639059387,0.01667184626939114,0.024505995390153575,0.009841245176494963,0.01494315386009893,0.01803796648797037,0.020226348639059387,0.02040763473441587,0.0241434231994406,0.020226348639059387,0.01803796648797037,0.02532825732266335,0.021773754952995106,0.02058892082977236,0.02259601688550488,0.022777302980861367,0.019404086706549608,0.030430166006267318,0.022958589076217853
S16_D16 hbo,0.009197054792679977,0.015559078816542607,0.01438341439819418,0.010130868244968156,0.022082336817778735,0.022082336817778735,0.020745438422056808,0.020745438422056808,0.02066482143337006,0.015478461827855856,0.02066482143337006,0.022082336817778735,0.022082336817778735,0.020826055410743557,0.022082336817778735,0.019247306048961386,0.024594899631849083,0.024675516620535833,0.020745438422056808,0.016654126246204284,0.0,0.006362024023862629,0.0,0.020745438422056808,0.015397844839169107,0.021921102840405236,0.024675516620535833,0.022082336817778735,0.022082336817778735,0.022082336817778735,0.01948915701502163,0.018071641630612957,0.01948915701502163,0.01940854002633488,0.016895977212264532,0.024675516620535833,0.010211485233654905,0.015397844839169107,0.018232875607986455,0.02066482143337006,0.020745438422056808,0.028444360841641363,0.022001719829091985,0.018232875607986455,0.027188079434606188,0.022082336817778735,0.020826055410743557,0.02577056405019751,0.02325800123612716,0.01956977400370838,0.024675516620535833,0.024594899631849083
