,S1_D1 hbo,S1_D3 hbo,S2_D1 hbo,S2_D2 hbo,S2_D4 hbo,S3_D1 hbo,S3_D3 hbo,S3_D4 hbo,S3_D5 hbo,S4_D2 hbo,S4_D4 hbo,S4_D6 hbo,S4_D11 hbo,S5_D3 hbo,S5_D5 hbo,S5_D7 hbo,S6_D4 hbo,S6_D5 hbo,S6_D6 hbo,S6_D8 hbo,S7_D5 hbo,S7_D7 hbo,S7_D8 hbo,S8_D6 hbo,S8_D8 hbo,S8_D15 hbo,S9_D2 hbo,S9_D9 hbo,S9_D11 hbo,S10_D9 hbo,S10_D10 hbo,S10_D12 hbo,S11_D9 hbo,S11_D11 hbo,S11_D12 hbo,S11_D13 hbo,S12_D10 hbo,S12_D12 hbo,S12_D14 hbo,S13_D6 hbo,S13_D11 hbo,S13_D13 hbo,S13_D15 hbo,S14_D12 hbo,S14_D13 hbo,S14_D14 hbo,S14_D16 hbo,S15_D13 hbo,S15_D15 hbo,S15_D16 hbo,S16_D14 hbo,S16_D16 hbo
S1_D1 hbo,0.025040827436037017,0.0195971692977681,0.02231899836690256,0.017964071856287425,0.02231899836690256,0.025040827436037017,0.0130647795318454,0.020685900925421885,0.021230266739248774,0.015242242787152967,0.012520413718018509,0.020141535111594992,0.025040827436037017,0.018508437670114317,0.020141535111594992,0.013609145345672292,0.015242242787152967,0.01905280348394121,0.01633097441480675,0.018508437670114317,0.014697876973326075,0.013609145345672292,0.015786608600979857,0.017419706042460535,0.018508437670114317,0.0130647795318454,0.025040827436037017,0.025040827436037017,0.025040827436037017,0.025040827436037017,0.011431682090364725,0.025040827436037017,0.025040827436037017,0.025040827436037017,0.025040827436037017,0.020685900925421885,0.025040827436037017,0.02231899836690256,0.015242242787152967,0.025040827436037017,0.008165487207403375,0.025040827436037017,0.025040827436037017,0.002177463255307567,0.025040827436037017,0.0,0.025040827436037017,0.025040827436037017,0.014697876973326075,0.025040827436037017,0.011976047904191617,0.017964071856287425
S1_D3 hbo,0.0220125786163522,0.0220125786163522,0.0220125786163522,0.020754716981132074,0.0220125786163522,0.0220125786163522,0.01509433962264151,0.0220125786163522,0.0220125786163522,0.01761006289308176,0.014465408805031447,0.0220125786163522,0.0220125786163522,0.021383647798742137,0.0220125786163522,0.015723270440251572,0.01761006289308176,0.0220125786163522,0.018867924528301886,0.021383647798742137,0.016981132075471698,0.015723270440251572,0.018238993710691823,0.02012578616352201,0.021383647798742137,0.01509433962264151,0.0220125786163522,0.0220125786163522,0.0220125786163522,0.0220125786163522,0.013207547169811321,0.0220125786163522,0.0220125786163522,0.0220125786163522,0.0220125786163522,0.0220125786163522,0.0220125786163522,0.018867924528301886,0.01761006289308176,0.0220125786163522,0.009433962264150943,0.0220125786163522,0.0220125786163522,0.0025157232704402514,0.0220125786163522,0.0,0.0220125786163522,0.0220125786163522,0.016981132075471698,0.0220125786163522,0.013836477987421384,0.020754716981132074
S2_D1 hbo,0.023323615160349854,0.02099125364431487,0.023323615160349854,0.01924198250728863,0.023323615160349854,0.023323615160349854,0.013994169096209912,0.022157434402332362,0.022740524781341108,0.0163265306122449,0.013411078717201166,0.021574344023323616,0.023323615160349854,0.019825072886297375,0.021574344023323616,0.014577259475218658,0.0163265306122449,0.02040816326530612,0.01749271137026239,0.019825072886297375,0.01574344023323615,0.014577259475218658,0.016909620991253645,0.018658892128279883,0.019825072886297375,0.013994169096209912,0.023323615160349854,0.023323615160349854,0.023323615160349854,0.023323615160349854,0.012244897959183673,0.023323615160349854,0.023323615160349854,0.023323615160349854,0.023323615160349854,0.022157434402332362,0.023323615160349854,0.02040816326530612,0.0163265306122449,0.023323615160349854,0.008746355685131196,0.023323615160349854,0.023323615160349854,0.0023323615160349854,0.023323615160349854,0.0,0.023323615160349854,0.023323615160349854,0.01574344023323615,0.023323615160349854,0.01282798833819242,0.01924198250728863
S2_D2 hbo,0.02140468227424749,0.02140468227424749,0.02140468227424749,0.02140468227424749,0.02140468227424749,0.02140468227424749,0.016053511705685617,0.02140468227424749,0.02140468227424749,0.018729096989966554,0.015384615384615385,0.02140468227424749,0.02140468227424749,0.02140468227424749,0.02140468227424749,0.016722408026755852,0.018729096989966554,0.02140468227424749,0.020066889632107024,0.02140468227424749,0.018060200668896322,0.016722408026755852,0.01939799331103679,0.02140468227424749,0.02140468227424749,0.016053511705685617,0.02140468227424749,0.02140468227424749,0.02140468227424749,0.02140468227424749,0.014046822742474917,0.02140468227424749,0.02140468227424749,0.02140468227424749,0.02140468227424749,0.02140468227424749,0.02140468227424749,0.018060200668896322,0.018729096989966554,0.02140468227424749,0.010033444816053512,0.02140468227424749,0.02140468227424749,0.0026755852842809363,0.02140468227424749,0.0,0.02140468227424749,0.02140468227424749,0.018060200668896322,0.02140468227424749,0.01471571906354515,0.02140468227424749
S2_D4 hbo,0.023323615160349854,0.02099125364431487,0.023323615160349854,0.01924198250728863,0.023323615160349854,0.023323615160349854,0.013994169096209912,0.022157434402332362,0.022740524781341108,0.0163265306122449,0.013411078717201166,0.021574344023323616,0.023323615160349854,0.019825072886297375,0.021574344023323616,0.014577259475218658,0.0163265306122449,0.02040816326530612,0.01749271137026239,0.019825072886297375,0.01574344023323615,0.014577259475218658,0.016909620991253645,0.018658892128279883,0.019825072886297375,0.013994169096209912,0.023323615160349854,0.023323615160349854,0.023323615160349854,0.023323615160349854,0.012244897959183673,0.023323615160349854,0.023323615160349854,0.023323615160349854,0.023323615160349854,0.022157434402332362,0.023323615160349854,0.02040816326530612,0.0163265306122449,0.023323615160349854,0.008746355685131196,0.023323615160349854,0.023323615160349854,0.0023323615160349854,0.023323615160349854,0.0,0.023323615160349854,0.023323615160349854,0.01574344023323615,0.023323615160349854,0.01282798833819242,0.01924198250728863
S3_D1 hbo,0.025040827436037017,0.0195971692977681,0.02231899836690256,0.017964071856287425,0.02231899836690256,0.025040827436037017,0.0130647795318454,0.020685900925421885,0.021230266739248774,0.015242242787152967,0.012520413718018509,0.020141535111594992,0.025040827436037017,0.018508437670114317,0.020141535111594992,0.013609145345672292,0.015242242787152967,0.01905280348394121,0.01633097441480675,0.018508437670114317,0.014697876973326075,0.013609145345672292,0.015786608600979857,0.017419706042460535,0.018508437670114317,0.0130647795318454,0.025040827436037017,0.025040827436037017,0.025040827436037017,0.025040827436037017,0.011431682090364725,0.025040827436037017,0.025040827436037017,0.025040827436037017,0.025040827436037017,0.020685900925421885,0.025040827436037017,0.02231899836690256,0.015242242787152967,0.025040827436037017,0.008165487207403375,0.025040827436037017,0.025040827436037017,0.002177463255307567,0.025040827436037017,0.0,0.025040827436037017,0.025040827436037017,0.014697876973326075,0.025040827436037017,0.011976047904191617,0.017964071856287425
S3_D3 hbo,0.020210896309314587,0.020210896309314587,0.020210896309314587,0.020210896309314587,0.020210896309314587,0.020210896309314587,0.020210896309314587,0.020210896309314587,0.020210896309314587,0.020210896309314587,0.020210896309314587,0.020210896309314587,0.020210896309314587,0.020210896309314587,0.020210896309314587,0.020210896309314587,0.020210896309314587,0.020210896309314587,0.020210896309314587,0.020210896309314587,0.020210896309314587,0.020210896309314587,0.020210896309314587,0.020210896309314587,0.020210896309314587,0.020210896309314587,0.020210896309314587,0.020210896309314587,0.020210896309314587,0.020210896309314587,0.01845342706502636,0.020210896309314587,0.020210896309314587,0.020210896309314587,0.020210896309314587,0.020210896309314587,0.020210896309314587,0.015817223198594025,0.020210896309314587,0.020210896309314587,0.013181019332161687,0.020210896309314587,0.020210896309314587,0.0035149384885764497,0.020210896309314587,0.0,0.020210896309314587,0.020210896309314587,0.020210896309314587,0.020210896309314587,0.019332161687170474,0.020210896309314587
S3_D4 hbo,0.022492401215805473,0.02188449848024316,0.022492401215805473,0.02006079027355623,0.022492401215805473,0.022492401215805473,0.01458966565349544,0.022492401215805473,0.022492401215805473,0.01702127659574468,0.01398176291793313,0.022492401215805473,0.022492401215805473,0.02066869300911854,0.022492401215805473,0.015197568389057751,0.01702127659574468,0.02127659574468085,0.0182370820668693,0.02066869300911854,0.01641337386018237,0.015197568389057751,0.01762917933130699,0.019452887537993922,0.02066869300911854,0.01458966565349544,0.022492401215805473,0.022492401215805473,0.022492401215805473,0.022492401215805473,0.01276595744680851,0.022492401215805473,0.022492401215805473,0.022492401215805473,0.022492401215805473,0.022492401215805473,0.022492401215805473,0.019452887537993922,0.01702127659574468,0.022492401215805473,0.00911854103343465,0.022492401215805473,0.022492401215805473,0.0024316109422492403,0.022492401215805473,0.0,0.022492401215805473,0.022492401215805473,0.01641337386018237,0.022492401215805473,0.013373860182370821,0.02006079027355623
S3_D5 hbo,0.022754491017964073,0.02155688622754491,0.022754491017964073,0.01976047904191617,0.022754491017964073,0.022754491017964073,0.01437125748502994,0.022754491017964073,0.022754491017964073,0.016766467065868262,0.013772455089820359,0.02215568862275449,0.022754491017964073,0.02035928143712575,0.02215568862275449,0.014970059880239521,0.016766467065868262,0.020958083832335328,0.017964071856287425,0.02035928143712575,0.016167664670658683,0.014970059880239521,0.017365269461077845,0.019161676646706587,0.02035928143712575,0.01437125748502994,0.022754491017964073,0.022754491017964073,0.022754491017964073,0.022754491017964073,0.012574850299401197,0.022754491017964073,0.022754491017964073,0.022754491017964073,0.022754491017964073,0.022754491017964073,0.022754491017964073,0.01976047904191617,0.016766467065868262,0.022754491017964073,0.008982035928143712,0.022754491017964073,0.022754491017964073,0.0023952095808383233,0.022754491017964073,0.0,0.022754491017964073,0.022754491017964073,0.016167664670658683,0.022754491017964073,0.013173652694610778,0.01976047904191617
S4_D2 hbo,0.020579268292682928,0.020579268292682928,0.020579268292682928,0.020579268292682928,0.020579268292682928,0.020579268292682928,0.018292682926829267,0.020579268292682928,0.020579268292682928,0.020579268292682928,0.01753048780487805,0.020579268292682928,0.020579268292682928,0.020579268292682928,0.020579268292682928,0.019054878048780487,0.020579268292682928,0.020579268292682928,0.020579268292682928,0.020579268292682928,0.020579268292682928,0.019054878048780487,0.020579268292682928,0.020579268292682928,0.020579268292682928,0.018292682926829267,0.020579268292682928,0.020579268292682928,0.020579268292682928,0.020579268292682928,0.01600609756097561,0.020579268292682928,0.020579268292682928,0.020579268292682928,0.020579268292682928,0.020579268292682928,0.020579268292682928,0.01676829268292683,0.020579268292682928,0.020579268292682928,0.011432926829268292,0.020579268292682928,0.020579268292682928,0.003048780487804878,0.020579268292682928,0.0,0.020579268292682928,0.020579268292682928,0.020579268292682928,0.020579268292682928,0.01676829268292683,0.020579268292682928
S4_D4 hbo,0.02016498625114574,0.02016498625114574,0.02016498625114574,0.02016498625114574,0.02016498625114574,0.02016498625114574,0.02016498625114574,0.02016498625114574,0.02016498625114574,0.02016498625114574,0.02016498625114574,0.02016498625114574,0.02016498625114574,0.02016498625114574,0.02016498625114574,0.02016498625114574,0.02016498625114574,0.02016498625114574,0.02016498625114574,0.02016498625114574,0.02016498625114574,0.02016498625114574,0.02016498625114574,0.02016498625114574,0.02016498625114574,0.02016498625114574,0.02016498625114574,0.02016498625114574,0.02016498625114574,0.02016498625114574,0.01924839596700275,0.02016498625114574,0.02016498625114574,0.02016498625114574,0.02016498625114574,0.02016498625114574,0.02016498625114574,0.015582034830430797,0.02016498625114574,0.02016498625114574,0.013748854262144821,0.02016498625114574,0.02016498625114574,0.0036663611365719525,0.02016498625114574,0.0,0.02016498625114574,0.02016498625114574,0.02016498625114574,0.02016498625114574,0.02016498625114574,0.02016498625114574
S4_D6 hbo,0.022249690976514216,0.022249690976514216,0.022249690976514216,0.0203955500618047,0.022249690976514216,0.022249690976514216,0.014833127317676144,0.022249690976514216,0.022249690976514216,0.0173053152039555,0.014215080346106305,0.022249690976514216,0.022249690976514216,0.021013597033374538,0.022249690976514216,0.015451174289245983,0.0173053152039555,0.021631644004944377,0.018541409147095178,0.021013597033374538,0.01668726823238566,0.015451174289245983,0.01792336217552534,0.019777503090234856,0.021013597033374538,0.014833127317676144,0.022249690976514216,0.022249690976514216,0.022249690976514216,0.022249690976514216,0.012978986402966625,0.022249690976514216,0.022249690976514216,0.022249690976514216,0.022249690976514216,0.022249690976514216,0.022249690976514216,0.019159456118665017,0.0173053152039555,0.022249690976514216,0.009270704573547589,0.022249690976514216,0.022249690976514216,0.002472187886279357,0.022249690976514216,0.0,0.022249690976514216,0.022249690976514216,0.01668726823238566,0.022249690976514216,0.013597033374536464,0.0203955500618047
S4_D11 hbo,0.025040827436037017,0.0195971692977681,0.02231899836690256,0.017964071856287425,0.02231899836690256,0.025040827436037017,0.0130647795318454,0.020685900925421885,0.021230266739248774,0.015242242787152967,0.012520413718018509,0.020141535111594992,0.025040827436037017,0.018508437670114317,0.020141535111594992,0.013609145345672292,0.015242242787152967,0.01905280348394121,0.01633097441480675,0.018508437670114317,0.014697876973326075,0.013609145345672292,0.015786608600979857,0.017419706042460535,0.018508437670114317,0.0130647795318454,0.025040827436037017,0.025040827436037017,0.025040827436037017,0.025040827436037017,0.011431682090364725,0.025040827436037017,0.025040827436037017,0.025040827436037017,0.025040827436037017,0.020685900925421885,0.025040827436037017,0.02231899836690256,0.015242242787152967,0.025040827436037017,0.008165487207403375,0.025040827436037017,0.025040827436037017,0.002177463255307567,0.025040827436037017,0.0,0.025040827436037017,0.025040827436037017,0.014697876973326075,0.025040827436037017,0.011976047904191617,0.017964071856287425
S5_D3 hbo,0.02158273381294964,0.02158273381294964,0.02158273381294964,0.02158273381294964,0.02158273381294964,0.02158273381294964,0.015696533682145193,0.02158273381294964,0.02158273381294964,0.01831262262916939,0.015042511445389144,0.02158273381294964,0.02158273381294964,0.02158273381294964,0.02158273381294964,0.016350555918901243,0.01831262262916939,0.02158273381294964,0.01962066710268149,0.02158273381294964,0.01765860039241334,0.016350555918901243,0.01896664486592544,0.020928711576193592,0.02158273381294964,0.015696533682145193,0.02158273381294964,0.02158273381294964,0.02158273381294964,0.02158273381294964,0.013734466971877043,0.02158273381294964,0.02158273381294964,0.02158273381294964,0.02158273381294964,0.02158273381294964,0.02158273381294964,0.01831262262916939,0.01831262262916939,0.02158273381294964,0.009810333551340745,0.02158273381294964,0.02158273381294964,0.002616088947024199,0.02158273381294964,0.0,0.02158273381294964,0.02158273381294964,0.01765860039241334,0.02158273381294964,0.014388489208633094,0.02158273381294964
S5_D5 hbo,0.022249690976514216,0.022249690976514216,0.022249690976514216,0.0203955500618047,0.022249690976514216,0.022249690976514216,0.014833127317676144,0.022249690976514216,0.022249690976514216,0.0173053152039555,0.014215080346106305,0.022249690976514216,0.022249690976514216,0.021013597033374538,0.022249690976514216,0.015451174289245983,0.0173053152039555,0.021631644004944377,0.018541409147095178,0.021013597033374538,0.01668726823238566,0.015451174289245983,0.01792336217552534,0.019777503090234856,0.021013597033374538,0.014833127317676144,0.022249690976514216,0.022249690976514216,0.022249690976514216,0.022249690976514216,0.012978986402966625,0.022249690976514216,0.022249690976514216,0.022249690976514216,0.022249690976514216,0.022249690976514216,0.022249690976514216,0.019159456118665017,0.0173053152039555,0.022249690976514216,0.009270704573547589,0.022249690976514216,0.022249690976514216,0.002472187886279357,0.022249690976514216,0.0,0.022249690976514216,0.022249690976514216,0.01668726823238566,0.022249690976514216,0.013597033374536464,0.0203955500618047
S5_D7 hbo,0.02027027027027027,0.02027027027027027,0.02027027027027027,0.02027027027027027,0.02027027027027027,0.02027027027027027,0.02027027027027027,0.02027027027027027,0.02027027027027027,0.02027027027027027,0.019425675675675675,0.02027027027027027,0.02027027027027027,0.02027027027027027,0.02027027027027027,0.02027027027027027,0.02027027027027027,0.02027027027027027,0.02027027027027027,0.02027027027027027,0.02027027027027027,0.02027027027027027,0.02027027027027027,0.02027027027027027,0.02027027027027027,0.02027027027027027,0.02027027027027027,0.02027027027027027,0.02027027027027027,0.02027027027027027,0.017736486486486486,0.02027027027027027,0.02027027027027027,0.02027027027027027,0.02027027027027027,0.02027027027027027,0.02027027027027027,0.016047297297297296,0.02027027027027027,0.02027027027027027,0.01266891891891892,0.02027027027027027,0.02027027027027027,0.0033783783783783786,0.02027027027027027,0.0,0.02027027027027027,0.02027027027027027,0.02027027027027027,0.02027027027027027,0.018581081081081082,0.02027027027027027
S6_D4 hbo,0.020579268292682928,0.020579268292682928,0.020579268292682928,0.020579268292682928,0.020579268292682928,0.020579268292682928,0.018292682926829267,0.020579268292682928,0.020579268292682928,0.020579268292682928,0.01753048780487805,0.020579268292682928,0.020579268292682928,0.020579268292682928,0.020579268292682928,0.019054878048780487,0.020579268292682928,0.020579268292682928,0.020579268292682928,0.020579268292682928,0.020579268292682928,0.019054878048780487,0.020579268292682928,0.020579268292682928,0.020579268292682928,0.018292682926829267,0.020579268292682928,0.020579268292682928,0.020579268292682928,0.020579268292682928,0.01600609756097561,0.020579268292682928,0.020579268292682928,0.020579268292682928,0.020579268292682928,0.020579268292682928,0.020579268292682928,0.01676829268292683,0.020579268292682928,0.020579268292682928,0.011432926829268292,0.020579268292682928,0.020579268292682928,0.003048780487804878,0.020579268292682928,0.0,0.020579268292682928,0.020579268292682928,0.020579268292682928,0.020579268292682928,0.01676829268292683,0.020579268292682928
S6_D5 hbo,0.021780909673286355,0.021780909673286355,0.021780909673286355,0.02114029468289558,0.021780909673286355,0.021780909673286355,0.015374759769378604,0.021780909673286355,0.021780909673286355,0.017937219730941704,0.014734144778987828,0.021780909673286355,0.021780909673286355,0.021780909673286355,0.021780909673286355,0.016015374759769378,0.017937219730941704,0.021780909673286355,0.019218449711723255,0.021780909673286355,0.01729660474055093,0.016015374759769378,0.018577834721332478,0.020499679692504803,0.021780909673286355,0.015374759769378604,0.021780909673286355,0.021780909673286355,0.021780909673286355,0.021780909673286355,0.013452914798206279,0.021780909673286355,0.021780909673286355,0.021780909673286355,0.021780909673286355,0.021780909673286355,0.021780909673286355,0.018577834721332478,0.017937219730941704,0.021780909673286355,0.009609224855861628,0.021780909673286355,0.021780909673286355,0.0025624599615631004,0.021780909673286355,0.0,0.021780909673286355,0.021780909673286355,0.01729660474055093,0.021780909673286355,0.014093529788597053,0.02114029468289558
S6_D6 hbo,0.02087832973362131,0.02087832973362131,0.02087832973362131,0.02087832973362131,0.02087832973362131,0.02087832973362131,0.017278617710583154,0.02087832973362131,0.02087832973362131,0.020158387329013677,0.01655867530597552,0.02087832973362131,0.02087832973362131,0.02087832973362131,0.02087832973362131,0.017998560115190784,0.020158387329013677,0.02087832973362131,0.02087832973362131,0.02087832973362131,0.019438444924406047,0.017998560115190784,0.02087832973362131,0.02087832973362131,0.02087832973362131,0.017278617710583154,0.02087832973362131,0.02087832973362131,0.02087832973362131,0.02087832973362131,0.01511879049676026,0.02087832973362131,0.02087832973362131,0.02087832973362131,0.02087832973362131,0.02087832973362131,0.02087832973362131,0.017278617710583154,0.020158387329013677,0.02087832973362131,0.01079913606911447,0.02087832973362131,0.02087832973362131,0.0028797696184305254,0.02087832973362131,0.0,0.02087832973362131,0.02087832973362131,0.019438444924406047,0.02087832973362131,0.01583873290136789,0.02087832973362131
S6_D8 hbo,0.02158273381294964,0.02158273381294964,0.02158273381294964,0.02158273381294964,0.02158273381294964,0.02158273381294964,0.015696533682145193,0.02158273381294964,0.02158273381294964,0.01831262262916939,0.015042511445389144,0.02158273381294964,0.02158273381294964,0.02158273381294964,0.02158273381294964,0.016350555918901243,0.01831262262916939,0.02158273381294964,0.01962066710268149,0.02158273381294964,0.01765860039241334,0.016350555918901243,0.01896664486592544,0.020928711576193592,0.02158273381294964,0.015696533682145193,0.02158273381294964,0.02158273381294964,0.02158273381294964,0.02158273381294964,0.013734466971877043,0.02158273381294964,0.02158273381294964,0.02158273381294964,0.02158273381294964,0.02158273381294964,0.02158273381294964,0.01831262262916939,0.01831262262916939,0.02158273381294964,0.009810333551340745,0.02158273381294964,0.02158273381294964,0.002616088947024199,0.02158273381294964,0.0,0.02158273381294964,0.02158273381294964,0.01765860039241334,0.02158273381294964,0.014388489208633094,0.02158273381294964
S7_D5 hbo,0.02047244094488189,0.02047244094488189,0.02047244094488189,0.02047244094488189,0.02047244094488189,0.02047244094488189,0.01889763779527559,0.02047244094488189,0.02047244094488189,0.02047244094488189,0.01811023622047244,0.02047244094488189,0.02047244094488189,0.02047244094488189,0.02047244094488189,0.01968503937007874,0.02047244094488189,0.02047244094488189,0.02047244094488189,0.02047244094488189,0.02047244094488189,0.01968503937007874,0.02047244094488189,0.02047244094488189,0.02047244094488189,0.01889763779527559,0.02047244094488189,0.02047244094488189,0.02047244094488189,0.02047244094488189,0.01653543307086614,0.02047244094488189,0.02047244094488189,0.02047244094488189,0.02047244094488189,0.02047244094488189,0.02047244094488189,0.01653543307086614,0.02047244094488189,0.02047244094488189,0.011811023622047244,0.02047244094488189,0.02047244094488189,0.0031496062992125984,0.02047244094488189,0.0,0.02047244094488189,0.02047244094488189,0.02047244094488189,0.02047244094488189,0.01732283464566929,0.02047244094488189
S7_D7 hbo,0.02027027027027027,0.02027027027027027,0.02027027027027027,0.02027027027027027,0.02027027027027027,0.02027027027027027,0.02027027027027027,0.02027027027027027,0.02027027027027027,0.02027027027027027,0.019425675675675675,0.02027027027027027,0.02027027027027027,0.02027027027027027,0.02027027027027027,0.02027027027027027,0.02027027027027027,0.02027027027027027,0.02027027027027027,0.02027027027027027,0.02027027027027027,0.02027027027027027,0.02027027027027027,0.02027027027027027,0.02027027027027027,0.02027027027027027,0.02027027027027027,0.02027027027027027,0.02027027027027027,0.02027027027027027,0.017736486486486486,0.02027027027027027,0.02027027027027027,0.02027027027027027,0.02027027027027027,0.02027027027027027,0.02027027027027027,0.016047297297297296,0.02027027027027027,0.02027027027027027,0.01266891891891892,0.02027027027027027,0.02027027027027027,0.0033783783783783786,0.02027027027027027,0.0,0.02027027027027027,0.02027027027027027,0.02027027027027027,0.02027027027027027,0.018581081081081082,0.02027027027027027
S7_D8 hbo,0.020710059171597635,0.020710059171597635,0.020710059171597635,0.020710059171597635,0.020710059171597635,0.020710059171597635,0.01775147928994083,0.020710059171597635,0.020710059171597635,0.020710059171597635,0.017011834319526627,0.020710059171597635,0.020710059171597635,0.020710059171597635,0.020710059171597635,0.01849112426035503,0.020710059171597635,0.020710059171597635,0.020710059171597635,0.020710059171597635,0.019970414201183433,0.01849112426035503,0.020710059171597635,0.020710059171597635,0.020710059171597635,0.01775147928994083,0.020710059171597635,0.020710059171597635,0.020710059171597635,0.020710059171597635,0.015532544378698224,0.020710059171597635,0.020710059171597635,0.020710059171597635,0.020710059171597635,0.020710059171597635,0.020710059171597635,0.017011834319526627,0.020710059171597635,0.020710059171597635,0.011094674556213017,0.020710059171597635,0.020710059171597635,0.0029585798816568047,0.020710059171597635,0.0,0.020710059171597635,0.020710059171597635,0.019970414201183433,0.020710059171597635,0.016272189349112426,0.020710059171597635
S8_D6 hbo,0.021232876712328767,0.021232876712328767,0.021232876712328767,0.021232876712328767,0.021232876712328767,0.021232876712328767,0.01643835616438356,0.021232876712328767,0.021232876712328767,0.019178082191780823,0.015753424657534248,0.021232876712328767,0.021232876712328767,0.021232876712328767,0.021232876712328767,0.017123287671232876,0.019178082191780823,0.021232876712328767,0.02054794520547945,0.021232876712328767,0.018493150684931507,0.017123287671232876,0.01986301369863014,0.021232876712328767,0.021232876712328767,0.01643835616438356,0.021232876712328767,0.021232876712328767,0.021232876712328767,0.021232876712328767,0.014383561643835616,0.021232876712328767,0.021232876712328767,0.021232876712328767,0.021232876712328767,0.021232876712328767,0.021232876712328767,0.01780821917808219,0.019178082191780823,0.021232876712328767,0.010273972602739725,0.021232876712328767,0.021232876712328767,0.0027397260273972603,0.021232876712328767,0.0,0.021232876712328767,0.021232876712328767,0.018493150684931507,0.021232876712328767,0.015068493150684932,0.021232876712328767
S8_D8 hbo,0.02158273381294964,0.02158273381294964,0.02158273381294964,0.02158273381294964,0.02158273381294964,0.02158273381294964,0.015696533682145193,0.02158273381294964,0.02158273381294964,0.01831262262916939,0.015042511445389144,0.02158273381294964,0.02158273381294964,0.02158273381294964,0.02158273381294964,0.016350555918901243,0.01831262262916939,0.02158273381294964,0.01962066710268149,0.02158273381294964,0.01765860039241334,0.016350555918901243,0.01896664486592544,0.020928711576193592,0.02158273381294964,0.015696533682145193,0.02158273381294964,0.02158273381294964,0.02158273381294964,0.02158273381294964,0.013734466971877043,0.02158273381294964,0.02158273381294964,0.02158273381294964,0.02158273381294964,0.02158273381294964,0.02158273381294964,0.01831262262916939,0.01831262262916939,0.02158273381294964,0.009810333551340745,0.02158273381294964,0.02158273381294964,0.002616088947024199,0.02158273381294964,0.0,0.02158273381294964,0.02158273381294964,0.01765860039241334,0.02158273381294964,0.014388489208633094,0.02158273381294964
S8_D15 hbo,0.020210896309314587,0.020210896309314587,0.020210896309314587,0.020210896309314587,0.020210896309314587,0.020210896309314587,0.020210896309314587,0.020210896309314587,0.020210896309314587,0.020210896309314587,0.020210896309314587,0.020210896309314587,0.020210896309314587,0.020210896309314587,0.020210896309314587,0.020210896309314587,0.020210896309314587,0.020210896309314587,0.020210896309314587,0.020210896309314587,0.020210896309314587,0.020210896309314587,0.020210896309314587,0.020210896309314587,0.020210896309314587,0.020210896309314587,0.020210896309314587,0.020210896309314587,0.020210896309314587,0.020210896309314587,0.01845342706502636,0.020210896309314587,0.020210896309314587,0.020210896309314587,0.020210896309314587,0.020210896309314587,0.020210896309314587,0.015817223198594025,0.020210896309314587,0.020210896309314587,0.013181019332161687,0.020210896309314587,0.020210896309314587,0.0035149384885764497,0.020210896309314587,0.0,0.020210896309314587,0.020210896309314587,0.020210896309314587,0.020210896309314587,0.019332161687170474,0.020210896309314587
S9_D2 hbo,0.025040827436037017,0.0195971692977681,0.02231899836690256,0.017964071856287425,0.02231899836690256,0.025040827436037017,0.0130647795318454,0.020685900925421885,0.021230266739248774,0.015242242787152967,0.012520413718018509,0.020141535111594992,0.025040827436037017,0.018508437670114317,0.020141535111594992,0.013609145345672292,0.015242242787152967,0.01905280348394121,0.01633097441480675,0.018508437670114317,0.014697876973326075,0.013609145345672292,0.015786608600979857,0.017419706042460535,0.018508437670114317,0.0130647795318454,0.025040827436037017,0.025040827436037017,0.025040827436037017,0.025040827436037017,0.011431682090364725,0.025040827436037017,0.025040827436037017,0.025040827436037017,0.025040827436037017,0.020685900925421885,0.025040827436037017,0.02231899836690256,0.015242242787152967,0.025040827436037017,0.008165487207403375,0.025040827436037017,0.025040827436037017,0.002177463255307567,0.025040827436037017,0.0,0.025040827436037017,0.025040827436037017,0.014697876973326075,0.025040827436037017,0.011976047904191617,0.017964071856287425
S9_D9 hbo,0.025040827436037017,0.0195971692977681,0.02231899836690256,0.017964071856287425,0.02231899836690256,0.025040827436037017,0.0130647795318454,0.020685900925421885,0.021230266739248774,0.015242242787152967,0.012520413718018509,0.020141535111594992,0.025040827436037017,0.018508437670114317,0.020141535111594992,0.013609145345672292,0.015242242787152967,0.01905280348394121,0.01633097441480675,0.018508437670114317,0.014697876973326075,0.013609145345672292,0.015786608600979857,0.017419706042460535,0.018508437670114317,0.0130647795318454,0.025040827436037017,0.025040827436037017,0.025040827436037017,0.025040827436037017,0.011431682090364725,0.025040827436037017,0.025040827436037017,0.025040827436037017,0.025040827436037017,0.020685900925421885,0.025040827436037017,0.02231899836690256,0.015242242787152967,0.025040827436037017,0.008165487207403375,0.025040827436037017,0.025040827436037017,0.002177463255307567,0.025040827436037017,0.0,0.025040827436037017,0.025040827436037017,0.014697876973326075,0.025040827436037017,0.011976047904191617,0.017964071856287425
S9_D11 hbo,0.025040827436037017,0.0195971692977681,0.02231899836690256,0.017964071856287425,0.02231899836690256,0.025040827436037017,0.0130647795318454,0.020685900925421885,0.021230266739248774,0.015242242787152967,0.012520413718018509,0.020141535111594992,0.025040827436037017,0.018508437670114317,0.020141535111594992,0.013609145345672292,0.015242242787152967,0.01905280348394121,0.01633097441480675,0.018508437670114317,0.014697876973326075,0.013609145345672292,0.015786608600979857,0.017419706042460535,0.018508437670114317,0.0130647795318454,0.025040827436037017,0.025040827436037017,0.025040827436037017,0.025040827436037017,0.011431682090364725,0.025040827436037017,0.025040827436037017,0.025040827436037017,0.025040827436037017,0.020685900925421885,0.025040827436037017,0.02231899836690256,0.015242242787152967,0.025040827436037017,0.008165487207403375,0.025040827436037017,0.025040827436037017,0.002177463255307567,0.025040827436037017,0.0,0.025040827436037017,0.025040827436037017,0.014697876973326075,0.025040827436037017,0.011976047904191617,0.017964071856287425
S10_D9 hbo,0.025040827436037017,0.0195971692977681,0.02231899836690256,0.017964071856287425,0.02231899836690256,0.025040827436037017,0.0130647795318454,0.020685900925421885,0.021230266739248774,0.015242242787152967,0.012520413718018509,0.020141535111594992,0.025040827436037017,0.018508437670114317,0.020141535111594992,0.013609145345672292,0.015242242787152967,0.01905280348394121,0.01633097441480675,0.018508437670114317,0.014697876973326075,0.013609145345672292,0.015786608600979857,0.017419706042460535,0.018508437670114317,0.0130647795318454,0.025040827436037017,0.025040827436037017,0.025040827436037017,0.025040827436037017,0.011431682090364725,0.025040827436037017,0.025040827436037017,0.025040827436037017,0.025040827436037017,0.020685900925421885,0.025040827436037017,0.02231899836690256,0.015242242787152967,0.025040827436037017,0.008165487207403375,0.025040827436037017,0.025040827436037017,0.002177463255307567,0.025040827436037017,0.0,0.025040827436037017,0.025040827436037017,0.014697876973326075,0.025040827436037017,0.011976047904191617,0.017964071856287425
S10_D10 hbo,0.02012072434607646,0.02012072434607646,0.02012072434607646,0.02012072434607646,0.02012072434607646,0.02012072434607646,0.02012072434607646,0.02012072434607646,0.02012072434607646,0.02012072434607646,0.02012072434607646,0.02012072434607646,0.02012072434607646,0.02012072434607646,0.02012072434607646,0.02012072434607646,0.02012072434607646,0.02012072434607646,0.02012072434607646,0.02012072434607646,0.02012072434607646,0.02012072434607646,0.02012072434607646,0.02012072434607646,0.02012072434607646,0.02012072434607646,0.02012072434607646,0.02012072434607646,0.02012072434607646,0.02012072434607646,0.02012072434607646,0.02012072434607646,0.02012072434607646,0.02012072434607646,0.02012072434607646,0.02012072434607646,0.02012072434607646,0.015090543259557344,0.02012072434607646,0.02012072434607646,0.015090543259557344,0.02012072434607646,0.02012072434607646,0.004024144869215292,0.02012072434607646,0.0,0.02012072434607646,0.02012072434607646,0.02012072434607646,0.02012072434607646,0.02012072434607646,0.02012072434607646
S10_D12 hbo,0.025040827436037017,0.0195971692977681,0.02231899836690256,0.017964071856287425,0.02231899836690256,0.025040827436037017,0.0130647795318454,0.020685900925421885,0.021230266739248774,0.015242242787152967,0.012520413718018509,0.020141535111594992,0.025040827436037017,0.018508437670114317,0.020141535111594992,0.013609145345672292,0.015242242787152967,0.01905280348394121,0.01633097441480675,0.018508437670114317,0.014697876973326075,0.013609145345672292,0.015786608600979857,0.017419706042460535,0.018508437670114317,0.0130647795318454,0.025040827436037017,0.025040827436037017,0.025040827436037017,0.025040827436037017,0.011431682090364725,0.025040827436037017,0.025040827436037017,0.025040827436037017,0.025040827436037017,0.020685900925421885,0.025040827436037017,0.02231899836690256,0.015242242787152967,0.025040827436037017,0.008165487207403375,0.025040827436037017,0.025040827436037017,0.002177463255307567,0.025040827436037017,0.0,0.025040827436037017,0.025040827436037017,0.014697876973326075,0.025040827436037017,0.011976047904191617,0.017964071856287425
S11_D9 hbo,0.025040827436037017,0.0195971692977681,0.02231899836690256,0.017964071856287425,0.02231899836690256,0.025040827436037017,0.0130647795318454,0.020685900925421885,0.021230266739248774,0.015242242787152967,0.012520413718018509,0.020141535111594992,0.025040827436037017,0.018508437670114317,0.020141535111594992,0.013609145345672292,0.015242242787152967,0.01905280348394121,0.01633097441480675,0.018508437670114317,0.014697876973326075,0.013609145345672292,0.015786608600979857,0.017419706042460535,0.018508437670114317,0.0130647795318454,0.025040827436037017,0.025040827436037017,0.025040827436037017,0.025040827436037017,0.011431682090364725,0.025040827436037017,0.025040827436037017,0.025040827436037017,0.025040827436037017,0.020685900925421885,0.025040827436037017,0.02231899836690256,0.015242242787152967,0.025040827436037017,0.008165487207403375,0.025040827436037017,0.025040827436037017,0.002177463255307567,0.025040827436037017,0.0,0.025040827436037017,0.025040827436037017,0.014697876973326075,0.025040827436037017,0.011976047904191617,0.017964071856287425
S11_D11 hbo,0.025040827436037017,0.0195971692977681,0.02231899836690256,0.017964071856287425,0.02231899836690256,0.025040827436037017,0.0130647795318454,0.020685900925421885,0.021230266739248774,0.015242242787152967,0.012520413718018509,0.020141535111594992,0.025040827436037017,0.018508437670114317,0.020141535111594992,0.013609145345672292,0.015242242787152967,0.01905280348394121,0.01633097441480675,0.018508437670114317,0.014697876973326075,0.013609145345672292,0.015786608600979857,0.017419706042460535,0.018508437670114317,0.0130647795318454,0.025040827436037017,0.025040827436037017,0.025040827436037017,0.025040827436037017,0.011431682090364725,0.025040827436037017,0.025040827436037017,0.025040827436037017,0.025040827436037017,0.020685900925421885,0.025040827436037017,0.02231899836690256,0.015242242787152967,0.025040827436037017,0.008165487207403375,0.025040827436037017,0.025040827436037017,0.002177463255307567,0.025040827436037017,0.0,0.025040827436037017,0.025040827436037017,0.014697876973326075,0.025040827436037017,0.011976047904191617,0.017964071856287425
S11_D12 hbo,0.025040827436037017,0.0195971692977681,0.02231899836690256,0.017964071856287425,0.02231899836690256,0.025040827436037017,0.0130647795318454,0.020685900925421885,0.021230266739248774,0.015242242787152967,0.012520413718018509,0.020141535111594992,0.025040827436037017,0.018508437670114317,0.020141535111594992,0.013609145345672292,0.015242242787152967,0.01905280348394121,0.01633097441480675,0.018508437670114317,0.014697876973326075,0.013609145345672292,0.015786608600979857,0.017419706042460535,0.018508437670114317,0.0130647795318454,0.025040827436037017,0.025040827436037017,0.025040827436037017,0.025040827436037017,0.011431682090364725,0.025040827436037017,0.025040827436037017,0.025040827436037017,0.025040827436037017,0.020685900925421885,0.025040827436037017,0.02231899836690256,0.015242242787152967,0.025040827436037017,0.008165487207403375,0.025040827436037017,0.025040827436037017,0.002177463255307567,0.025040827436037017,0.0,0.025040827436037017,0.025040827436037017,0.014697876973326075,0.025040827436037017,0.011976047904191617,0.017964071856287425
S11_D13 hbo,0.022492401215805473,0.02188449848024316,0.022492401215805473,0.02006079027355623,0.022492401215805473,0.022492401215805473,0.01458966565349544,0.022492401215805473,0.022492401215805473,0.01702127659574468,0.01398176291793313,0.022492401215805473,0.022492401215805473,0.02066869300911854,0.022492401215805473,0.015197568389057751,0.01702127659574468,0.02127659574468085,0.0182370820668693,0.02066869300911854,0.01641337386018237,0.015197568389057751,0.01762917933130699,0.019452887537993922,0.02066869300911854,0.01458966565349544,0.022492401215805473,0.022492401215805473,0.022492401215805473,0.022492401215805473,0.01276595744680851,0.022492401215805473,0.022492401215805473,0.022492401215805473,0.022492401215805473,0.022492401215805473,0.022492401215805473,0.019452887537993922,0.01702127659574468,0.022492401215805473,0.00911854103343465,0.022492401215805473,0.022492401215805473,0.0024316109422492403,0.022492401215805473,0.0,0.022492401215805473,0.022492401215805473,0.01641337386018237,0.022492401215805473,0.013373860182370821,0.02006079027355623
S12_D10 hbo,0.025040827436037017,0.0195971692977681,0.02231899836690256,0.017964071856287425,0.02231899836690256,0.025040827436037017,0.0130647795318454,0.020685900925421885,0.021230266739248774,0.015242242787152967,0.012520413718018509,0.020141535111594992,0.025040827436037017,0.018508437670114317,0.020141535111594992,0.013609145345672292,0.015242242787152967,0.01905280348394121,0.01633097441480675,0.018508437670114317,0.014697876973326075,0.013609145345672292,0.015786608600979857,0.017419706042460535,0.018508437670114317,0.0130647795318454,0.025040827436037017,0.025040827436037017,0.025040827436037017,0.025040827436037017,0.011431682090364725,0.025040827436037017,0.025040827436037017,0.025040827436037017,0.025040827436037017,0.020685900925421885,0.025040827436037017,0.02231899836690256,0.015242242787152967,0.025040827436037017,0.008165487207403375,0.025040827436037017,0.025040827436037017,0.002177463255307567,0.025040827436037017,0.0,0.025040827436037017,0.025040827436037017,0.014697876973326075,0.025040827436037017,0.011976047904191617,0.017964071856287425
S12_D12 hbo,0.02565668906536347,0.019547953573610263,0.022602321319486866,0.0177153329260843,0.022602321319486866,0.02565668906536347,0.012217470983506415,0.020769700671960906,0.021380574221136223,0.014660965180207697,0.011606597434331093,0.020158827122785584,0.02565668906536347,0.01832620647525962,0.020158827122785584,0.012828344532681736,0.014660965180207697,0.018937080024434942,0.01588271227855834,0.01832620647525962,0.014050091631032376,0.012828344532681736,0.015271838729383017,0.01710445937690898,0.01832620647525962,0.012217470983506415,0.02565668906536347,0.02565668906536347,0.02565668906536347,0.02565668906536347,0.010384850335980453,0.02565668906536347,0.02565668906536347,0.02565668906536347,0.02565668906536347,0.020769700671960906,0.02565668906536347,0.02504581551618815,0.014660965180207697,0.02565668906536347,0.006719609040928528,0.02565668906536347,0.02565668906536347,0.0,0.02565668906536347,0.0,0.02565668906536347,0.02565668906536347,0.014050091631032376,0.02565668906536347,0.010995723885155772,0.0177153329260843
S12_D14 hbo,0.020579268292682928,0.020579268292682928,0.020579268292682928,0.020579268292682928,0.020579268292682928,0.020579268292682928,0.018292682926829267,0.020579268292682928,0.020579268292682928,0.020579268292682928,0.01753048780487805,0.020579268292682928,0.020579268292682928,0.020579268292682928,0.020579268292682928,0.019054878048780487,0.020579268292682928,0.020579268292682928,0.020579268292682928,0.020579268292682928,0.020579268292682928,0.019054878048780487,0.020579268292682928,0.020579268292682928,0.020579268292682928,0.018292682926829267,0.020579268292682928,0.020579268292682928,0.020579268292682928,0.020579268292682928,0.01600609756097561,0.020579268292682928,0.020579268292682928,0.020579268292682928,0.020579268292682928,0.020579268292682928,0.020579268292682928,0.01676829268292683,0.020579268292682928,0.020579268292682928,0.011432926829268292,0.020579268292682928,0.020579268292682928,0.003048780487804878,0.020579268292682928,0.0,0.020579268292682928,0.020579268292682928,0.020579268292682928,0.020579268292682928,0.01676829268292683,0.020579268292682928
S13_D6 hbo,0.025040827436037017,0.0195971692977681,0.02231899836690256,0.017964071856287425,0.02231899836690256,0.025040827436037017,0.0130647795318454,0.020685900925421885,0.021230266739248774,0.015242242787152967,0.012520413718018509,0.020141535111594992,0.025040827436037017,0.018508437670114317,0.020141535111594992,0.013609145345672292,0.015242242787152967,0.01905280348394121,0.01633097441480675,0.018508437670114317,0.014697876973326075,0.013609145345672292,0.015786608600979857,0.017419706042460535,0.018508437670114317,0.0130647795318454,0.025040827436037017,0.025040827436037017,0.025040827436037017,0.025040827436037017,0.011431682090364725,0.025040827436037017,0.025040827436037017,0.025040827436037017,0.025040827436037017,0.020685900925421885,0.025040827436037017,0.02231899836690256,0.015242242787152967,0.025040827436037017,0.008165487207403375,0.025040827436037017,0.025040827436037017,0.002177463255307567,0.025040827436037017,0.0,0.025040827436037017,0.025040827436037017,0.014697876973326075,0.025040827436037017,0.011976047904191617,0.017964071856287425
S13_D11 hbo,0.020028612303290415,0.020028612303290415,0.020028612303290415,0.020028612303290415,0.020028612303290415,0.020028612303290415,0.020028612303290415,0.020028612303290415,0.020028612303290415,0.020028612303290415,0.020028612303290415,0.020028612303290415,0.020028612303290415,0.020028612303290415,0.020028612303290415,0.020028612303290415,0.020028612303290415,0.020028612303290415,0.020028612303290415,0.020028612303290415,0.020028612303290415,0.020028612303290415,0.020028612303290415,0.020028612303290415,0.020028612303290415,0.020028612303290415,0.020028612303290415,0.020028612303290415,0.020028612303290415,0.020028612303290415,0.020028612303290415,0.020028612303290415,0.020028612303290415,0.020028612303290415,0.020028612303290415,0.020028612303290415,0.020028612303290415,0.012875536480686695,0.020028612303290415,0.020028612303290415,0.020028612303290415,0.020028612303290415,0.020028612303290415,0.005722460658082976,0.020028612303290415,0.0,0.020028612303290415,0.020028612303290415,0.020028612303290415,0.020028612303290415,0.020028612303290415,0.020028612303290415
S13_D13 hbo,0.025040827436037017,0.0195971692977681,0.02231899836690256,0.017964071856287425,0.02231899836690256,0.025040827436037017,0.0130647795318454,0.020685900925421885,0.021230266739248774,0.015242242787152967,0.012520413718018509,0.020141535111594992,0.025040827436037017,0.018508437670114317,0.020141535111594992,0.013609145345672292,0.015242242787152967,0.01905280348394121,0.01633097441480675,0.018508437670114317,0.014697876973326075,0.013609145345672292,0.015786608600979857,0.017419706042460535,0.018508437670114317,0.0130647795318454,0.025040827436037017,0.025040827436037017,0.025040827436037017,0.025040827436037017,0.011431682090364725,0.025040827436037017,0.025040827436037017,0.025040827436037017,0.025040827436037017,0.020685900925421885,0.025040827436037017,0.02231899836690256,0.015242242787152967,0.025040827436037017,0.008165487207403375,0.025040827436037017,0.025040827436037017,0.002177463255307567,0.025040827436037017,0.0,0.025040827436037017,0.025040827436037017,0.014697876973326075,0.025040827436037017,0.011976047904191617,0.017964071856287425
S13_D15 hbo,0.025040827436037017,0.0195971692977681,0.02231899836690256,0.017964071856287425,0.02231899836690256,0.025040827436037017,0.0130647795318454,0.020685900925421885,0.021230266739248774,0.015242242787152967,0.012520413718018509,0.020141535111594992,0.025040827436037017,0.018508437670114317,0.020141535111594992,0.013609145345672292,0.015242242787152967,0.01905280348394121,0.01633097441480675,0.018508437670114317,0.014697876973326075,0.013609145345672292,0.015786608600979857,0.017419706042460535,0.018508437670114317,0.0130647795318454,0.025040827436037017,0.025040827436037017,0.025040827436037017,0.025040827436037017,0.011431682090364725,0.025040827436037017,0.025040827436037017,0.025040827436037017,0.025040827436037017,0.020685900925421885,0.025040827436037017,0.02231899836690256,0.015242242787152967,0.025040827436037017,0.008165487207403375,0.025040827436037017,0.025040827436037017,0.002177463255307567,0.025040827436037017,0.0,0.025040827436037017,0.025040827436037017,0.014697876973326075,0.025040827436037017,0.011976047904191617,0.017964071856287425
S14_D12 hbo,0.02,0.02,0.02,0.02,0.02,0.02,0.02,0.02,0.02,0.02,0.02,0.02,0.02,0.02,0.02,0.02,0.02,0.02,0.02,0.02,0.02,0.02,0.02,0.02,0.02,0.02,0.02,0.02,0.02,0.02,0.02,0.02,0.02,0.02,0.02,0.02,0.02,0.0,0.02,0.02,0.02,0.02,0.02,0.02,0.02,0.0,0.02,0.02,0.02,0.02,0.02,0.02
S14_D13 hbo,0.025040827436037017,0.0195971692977681,0.02231899836690256,0.017964071856287425,0.02231899836690256,0.025040827436037017,0.0130647795318454,0.020685900925421885,0.021230266739248774,0.015242242787152967,0.012520413718018509,0.020141535111594992,0.025040827436037017,0.018508437670114317,0.020141535111594992,0.013609145345672292,0.015242242787152967,0.01905280348394121,0.01633097441480675,0.018508437670114317,0.014697876973326075,0.013609145345672292,0.015786608600979857,0.017419706042460535,0.018508437670114317,0.0130647795318454,0.025040827436037017,0.025040827436037017,0.025040827436037017,0.025040827436037017,0.011431682090364725,0.025040827436037017,0.025040827436037017,0.025040827436037017,0.025040827436037017,0.020685900925421885,0.025040827436037017,0.02231899836690256,0.015242242787152967,0.025040827436037017,0.008165487207403375,0.025040827436037017,0.025040827436037017,0.002177463255307567,0.025040827436037017,0.0,0.025040827436037017,0.025040827436037017,0.014697876973326075,0.025040827436037017,0.011976047904191617,0.017964071856287425
S14_D14 hbo,0.0,0.0,0.0,0.0,0.0,0.0,0.0,0.0,0.0,0.0,0.0,0.0,0.0,0.0,0.0,0.0,0.0,0.0,0.0,0.0,0.0,0.0,0.0,0.0,0.0,0.0,0.0,0.0,0.0,0.0,0.0,0.0,0.0,0.0,0.0,0.0,0.0,0.0,0.0,0.0,0.0,0.0,0.0,0.0,0.0,0.0,0.0,0.0,0.0,0.0,0.0,0.0
S14_D16 hbo,0.025040827436037017,0.0195971692977681,0.02231899836690256,0.017964071856287425,0.02231899836690256,0.025040827436037017,0.0130647795318454,0.020685900925421885,0.021230266739248774,0.015242242787152967,0.012520413718018509,0.020141535111594992,0.025040827436037017,0.018508437670114317,0.020141535111594992,0.013609145345672292,0.015242242787152967,0.01905280348394121,0.01633097441480675,0.018508437670114317,0.014697876973326075,0.013609145345672292,0.015786608600979857,0.017419706042460535,0.018508437670114317,0.0130647795318454,0.025040827436037017,0.025040827436037017,0.025040827436037017,0.025040827436037017,0.011431682090364725,0.025040827436037017,0.025040827436037017,0.025040827436037017,0.025040827436037017,0.020685900925421885,0.025040827436037017,0.02231899836690256,0.015242242787152967,0.025040827436037017,0.008165487207403375,0.025040827436037017,0.025040827436037017,0.002177463255307567,0.025040827436037017,0.0,0.025040827436037017,0.025040827436037017,0.014697876973326075,0.025040827436037017,0.011976047904191617,0.017964071856287425
S15_D13 hbo,0.025040827436037017,0.0195971692977681,0.02231899836690256,0.017964071856287425,0.02231899836690256,0.025040827436037017,0.0130647795318454,0.020685900925421885,0.021230266739248774,0.015242242787152967,0.012520413718018509,0.020141535111594992,0.025040827436037017,0.018508437670114317,0.020141535111594992,0.013609145345672292,0.015242242787152967,0.01905280348394121,0.01633097441480675,0.018508437670114317,0.014697876973326075,0.013609145345672292,0.015786608600979857,0.017419706042460535,0.018508437670114317,0.0130647795318454,0.025040827436037017,0.025040827436037017,0.025040827436037017,0.025040827436037017,0.011431682090364725,0.025040827436037017,0.025040827436037017,0.025040827436037017,0.025040827436037017,0.020685900925421885,0.025040827436037017,0.02231899836690256,0.015242242787152967,0.025040827436037017,0.008165487207403375,0.025040827436037017,0.025040827436037017,0.002177463255307567,0.025040827436037017,0.0,0.025040827436037017,0.025040827436037017,0.014697876973326075,0.025040827436037017,0.011976047904191617,0.017964071856287425
S15_D15 hbo,0.02047244094488189,0.02047244094488189,0.02047244094488189,0.02047244094488189,0.02047244094488189,0.02047244094488189,0.01889763779527559,0.02047244094488189,0.02047244094488189,0.02047244094488189,0.01811023622047244,0.02047244094488189,0.02047244094488189,0.02047244094488189,0.02047244094488189,0.01968503937007874,0.02047244094488189,0.02047244094488189,0.02047244094488189,0.02047244094488189,0.02047244094488189,0.01968503937007874,0.02047244094488189,0.02047244094488189,0.02047244094488189,0.01889763779527559,0.02047244094488189,0.02047244094488189,0.02047244094488189,0.02047244094488189,0.01653543307086614,0.02047244094488189,0.02047244094488189,0.02047244094488189,0.02047244094488189,0.02047244094488189,0.02047244094488189,0.01653543307086614,0.02047244094488189,0.02047244094488189,0.011811023622047244,0.02047244094488189,0.02047244094488189,0.0031496062992125984,0.02047244094488189,0.0,0.02047244094488189,0.02047244094488189,0.02047244094488189,0.02047244094488189,0.01732283464566929,0.02047244094488189
S15_D16 hbo,0.025040827436037017,0.0195971692977681,0.02231899836690256,0.017964071856287425,0.02231899836690256,0.025040827436037017,0.0130647795318454,0.020685900925421885,0.021230266739248774,0.015242242787152967,0.012520413718018509,0.020141535111594992,0.025040827436037017,0.018508437670114317,0.020141535111594992,0.013609145345672292,0.015242242787152967,0.01905280348394121,0.01633097441480675,0.018508437670114317,0.014697876973326075,0.013609145345672292,0.015786608600979857,0.017419706042460535,0.018508437670114317,0.0130647795318454,0.025040827436037017,0.025040827436037017,0.025040827436037017,0.025040827436037017,0.011431682090364725,0.025040827436037017,0.025040827436037017,0.025040827436037017,0.025040827436037017,0.020685900925421885,0.025040827436037017,0.02231899836690256,0.015242242787152967,0.025040827436037017,0.008165487207403375,0.025040827436037017,0.025040827436037017,0.002177463255307567,0.025040827436037017,0.0,0.025040827436037017,0.025040827436037017,0.014697876973326075,0.025040827436037017,0.011976047904191617,0.017964071856287425
S16_D14 hbo,0.020134228187919462,0.020134228187919462,0.020134228187919462,0.020134228187919462,0.020134228187919462,0.020134228187919462,0.020134228187919462,0.020134228187919462,0.020134228187919462,0.020134228187919462,0.020134228187919462,0.020134228187919462,0.020134228187919462,0.020134228187919462,0.020134228187919462,0.020134228187919462,0.020134228187919462,0.020134228187919462,0.020134228187919462,0.020134228187919462,0.020134228187919462,0.020134228187919462,0.020134228187919462,0.020134228187919462,0.020134228187919462,0.020134228187919462,0.020134228187919462,0.020134228187919462,0.020134228187919462,0.020134228187919462,0.020134228187919462,0.020134228187919462,0.020134228187919462,0.020134228187919462,0.020134228187919462,0.020134228187919462,0.020134228187919462,0.015340364333652923,0.020134228187919462,0.020134228187919462,0.014381591562799617,0.020134228187919462,0.020134228187919462,0.003835091083413231,0.020134228187919462,0.0,0.020134228187919462,0.020134228187919462,0.020134228187919462,0.020134228187919462,0.020134228187919462,0.020134228187919462
S16_D16 hbo,0.02140468227424749,0.02140468227424749,0.02140468227424749,0.02140468227424749,0.02140468227424749,0.02140468227424749,0.016053511705685617,0.02140468227424749,0.02140468227424749,0.018729096989966554,0.015384615384615385,0.02140468227424749,0.02140468227424749,0.02140468227424749,0.02140468227424749,0.016722408026755852,0.018729096989966554,0.02140468227424749,0.020066889632107024,0.02140468227424749,0.018060200668896322,0.016722408026755852,0.01939799331103679,0.02140468227424749,0.02140468227424749,0.016053511705685617,0.02140468227424749,0.02140468227424749,0.02140468227424749,0.02140468227424749,0.014046822742474917,0.02140468227424749,0.02140468227424749,0.02140468227424749,0.02140468227424749,0.02140468227424749,0.02140468227424749,0.018060200668896322,0.018729096989966554,0.02140468227424749,0.010033444816053512,0.02140468227424749,0.02140468227424749,0.0026755852842809363,0.02140468227424749,0.0,0.02140468227424749,0.02140468227424749,0.018060200668896322,0.02140468227424749,0.01471571906354515,0.02140468227424749
