,S1_D1 hbo,S1_D3 hbo,S2_D1 hbo,S2_D2 hbo,S2_D4 hbo,S3_D1 hbo,S3_D3 hbo,S3_D4 hbo,S3_D5 hbo,S4_D2 hbo,S4_D4 hbo,S4_D6 hbo,S4_D11 hbo,S5_D3 hbo,S5_D5 hbo,S5_D7 hbo,S6_D4 hbo,S6_D5 hbo,S6_D6 hbo,S6_D8 hbo,S7_D5 hbo,S7_D7 hbo,S7_D8 hbo,S8_D6 hbo,S8_D8 hbo,S8_D15 hbo,S9_D2 hbo,S9_D9 hbo,S9_D11 hbo,S10_D9 hbo,S10_D10 hbo,S10_D12 hbo,S11_D9 hbo,S11_D11 hbo,S11_D12 hbo,S11_D13 hbo,S12_D10 hbo,S12_D12 hbo,S12_D14 hbo,S13_D6 hbo,S13_D11 hbo,S13_D13 hbo,S13_D15 hbo,S14_D12 hbo,S14_D13 hbo,S14_D14 hbo,S14_D16 hbo,S15_D13 hbo,S15_D15 hbo,S15_D16 hbo,S16_D14 hbo,S16_D16 hbo
S1_D1 hbo,0.01818181818181818,0.020454545454545454,0.020454545454545454,0.020454545454545454,0.020454545454545454,0.020454545454545454,0.020454545454545454,0.020454545454545454,0.020454545454545454,0.020454545454545454,0.020454545454545454,0.020454545454545454,0.020454545454545454,0.020454545454545454,0.020454545454545454,0.020454545454545454,0.020454545454545454,0.020454545454545454,0.020454545454545454,0.020454545454545454,0.0,0.0,0.0,0.020454545454545454,0.020454545454545454,0.020454545454545454,0.020454545454545454,0.020454545454545454,0.020454545454545454,0.020454545454545454,0.020454545454545454,0.020454545454545454,0.020454545454545454,0.020454545454545454,0.020454545454545454,0.020454545454545454,0.020454545454545454,0.020454545454545454,0.020454545454545454,0.020454545454545454,0.020454545454545454,0.020454545454545454,0.020454545454545454,0.020454545454545454,0.020454545454545454,0.020454545454545454,0.020454545454545454,0.020454545454545454,0.020454545454545454,0.020454545454545454,0.020454545454545454,0.020454545454545454
S1_D3 hbo,0.011444921316165951,0.02145922746781116,0.01430615164520744,0.020028612303290415,0.01859799713876967,0.02145922746781116,0.01859799713876967,0.02145922746781116,0.012875536480686695,0.02145922746781116,0.02145922746781116,0.022889842632331903,0.02145922746781116,0.02145922746781116,0.020028612303290415,0.012875536480686695,0.01859799713876967,0.020028612303290415,0.02145922746781116,0.020028612303290415,0.0,0.0,0.0,0.02145922746781116,0.01859799713876967,0.020028612303290415,0.020028612303290415,0.022889842632331903,0.022889842632331903,0.02145922746781116,0.01859799713876967,0.022889842632331903,0.022889842632331903,0.022889842632331903,0.02145922746781116,0.02145922746781116,0.022889842632331903,0.022889842632331903,0.022889842632331903,0.02145922746781116,0.022889842632331903,0.020028612303290415,0.020028612303290415,0.022889842632331903,0.01859799713876967,0.022889842632331903,0.02145922746781116,0.01430615164520744,0.02145922746781116,0.020028612303290415,0.022889842632331903,0.022889842632331903
S2_D1 hbo,0.01509433962264151,0.020754716981132074,0.018867924528301886,0.020754716981132074,0.020754716981132074,0.020754716981132074,0.020754716981132074,0.020754716981132074,0.016981132075471698,0.020754716981132074,0.020754716981132074,0.020754716981132074,0.020754716981132074,0.020754716981132074,0.020754716981132074,0.016981132075471698,0.020754716981132074,0.020754716981132074,0.020754716981132074,0.020754716981132074,0.0,0.0,0.0,0.020754716981132074,0.020754716981132074,0.020754716981132074,0.020754716981132074,0.020754716981132074,0.020754716981132074,0.020754716981132074,0.020754716981132074,0.020754716981132074,0.020754716981132074,0.020754716981132074,0.020754716981132074,0.020754716981132074,0.020754716981132074,0.020754716981132074,0.020754716981132074,0.020754716981132074,0.020754716981132074,0.020754716981132074,0.020754716981132074,0.020754716981132074,0.020754716981132074,0.020754716981132074,0.020754716981132074,0.018867924528301886,0.020754716981132074,0.020754716981132074,0.020754716981132074,0.020754716981132074
S2_D2 hbo,0.01167883211678832,0.021897810218978103,0.014598540145985401,0.020437956204379562,0.01897810218978102,0.021897810218978103,0.01897810218978102,0.021897810218978103,0.013138686131386862,0.021897810218978103,0.021897810218978103,0.021897810218978103,0.021897810218978103,0.021897810218978103,0.020437956204379562,0.013138686131386862,0.01897810218978102,0.020437956204379562,0.021897810218978103,0.020437956204379562,0.0,0.0,0.0,0.021897810218978103,0.01897810218978102,0.020437956204379562,0.020437956204379562,0.021897810218978103,0.021897810218978103,0.021897810218978103,0.01897810218978102,0.021897810218978103,0.021897810218978103,0.021897810218978103,0.021897810218978103,0.021897810218978103,0.021897810218978103,0.021897810218978103,0.021897810218978103,0.021897810218978103,0.021897810218978103,0.020437956204379562,0.020437956204379562,0.021897810218978103,0.01897810218978102,0.021897810218978103,0.021897810218978103,0.014598540145985401,0.021897810218978103,0.020437956204379562,0.021897810218978103,0.021897810218978103
S2_D4 hbo,0.012195121951219513,0.021341463414634148,0.01524390243902439,0.021341463414634148,0.019817073170731708,0.021341463414634148,0.019817073170731708,0.021341463414634148,0.013719512195121951,0.021341463414634148,0.021341463414634148,0.021341463414634148,0.021341463414634148,0.021341463414634148,0.021341463414634148,0.013719512195121951,0.019817073170731708,0.021341463414634148,0.021341463414634148,0.021341463414634148,0.0,0.0,0.0,0.021341463414634148,0.019817073170731708,0.021341463414634148,0.021341463414634148,0.021341463414634148,0.021341463414634148,0.021341463414634148,0.019817073170731708,0.021341463414634148,0.021341463414634148,0.021341463414634148,0.021341463414634148,0.021341463414634148,0.021341463414634148,0.021341463414634148,0.021341463414634148,0.021341463414634148,0.021341463414634148,0.021341463414634148,0.021341463414634148,0.021341463414634148,0.019817073170731708,0.021341463414634148,0.021341463414634148,0.01524390243902439,0.021341463414634148,0.021341463414634148,0.021341463414634148,0.021341463414634148
S3_D1 hbo,0.011444921316165951,0.02145922746781116,0.01430615164520744,0.020028612303290415,0.01859799713876967,0.02145922746781116,0.01859799713876967,0.02145922746781116,0.012875536480686695,0.02145922746781116,0.02145922746781116,0.022889842632331903,0.02145922746781116,0.02145922746781116,0.020028612303290415,0.012875536480686695,0.01859799713876967,0.020028612303290415,0.02145922746781116,0.020028612303290415,0.0,0.0,0.0,0.02145922746781116,0.01859799713876967,0.020028612303290415,0.020028612303290415,0.022889842632331903,0.022889842632331903,0.02145922746781116,0.01859799713876967,0.022889842632331903,0.022889842632331903,0.022889842632331903,0.02145922746781116,0.02145922746781116,0.022889842632331903,0.022889842632331903,0.022889842632331903,0.02145922746781116,0.022889842632331903,0.020028612303290415,0.020028612303290415,0.022889842632331903,0.01859799713876967,0.022889842632331903,0.02145922746781116,0.01430615164520744,0.02145922746781116,0.020028612303290415,0.022889842632331903,0.022889842632331903
S3_D3 hbo,0.012195121951219513,0.021341463414634148,0.01524390243902439,0.021341463414634148,0.019817073170731708,0.021341463414634148,0.019817073170731708,0.021341463414634148,0.013719512195121951,0.021341463414634148,0.021341463414634148,0.021341463414634148,0.021341463414634148,0.021341463414634148,0.021341463414634148,0.013719512195121951,0.019817073170731708,0.021341463414634148,0.021341463414634148,0.021341463414634148,0.0,0.0,0.0,0.021341463414634148,0.019817073170731708,0.021341463414634148,0.021341463414634148,0.021341463414634148,0.021341463414634148,0.021341463414634148,0.019817073170731708,0.021341463414634148,0.021341463414634148,0.021341463414634148,0.021341463414634148,0.021341463414634148,0.021341463414634148,0.021341463414634148,0.021341463414634148,0.021341463414634148,0.021341463414634148,0.021341463414634148,0.021341463414634148,0.021341463414634148,0.019817073170731708,0.021341463414634148,0.021341463414634148,0.01524390243902439,0.021341463414634148,0.021341463414634148,0.021341463414634148,0.021341463414634148
S3_D4 hbo,0.011444921316165951,0.02145922746781116,0.01430615164520744,0.020028612303290415,0.01859799713876967,0.02145922746781116,0.01859799713876967,0.02145922746781116,0.012875536480686695,0.02145922746781116,0.02145922746781116,0.022889842632331903,0.02145922746781116,0.02145922746781116,0.020028612303290415,0.012875536480686695,0.01859799713876967,0.020028612303290415,0.02145922746781116,0.020028612303290415,0.0,0.0,0.0,0.02145922746781116,0.01859799713876967,0.020028612303290415,0.020028612303290415,0.022889842632331903,0.022889842632331903,0.02145922746781116,0.01859799713876967,0.022889842632331903,0.022889842632331903,0.022889842632331903,0.02145922746781116,0.02145922746781116,0.022889842632331903,0.022889842632331903,0.022889842632331903,0.02145922746781116,0.022889842632331903,0.020028612303290415,0.020028612303290415,0.022889842632331903,0.01859799713876967,0.022889842632331903,0.02145922746781116,0.01430615164520744,0.02145922746781116,0.020028612303290415,0.022889842632331903,0.022889842632331903
S3_D5 hbo,0.01646090534979424,0.0205761316872428,0.0205761316872428,0.0205761316872428,0.0205761316872428,0.0205761316872428,0.0205761316872428,0.0205761316872428,0.018518518518518517,0.0205761316872428,0.0205761316872428,0.0205761316872428,0.0205761316872428,0.0205761316872428,0.0205761316872428,0.018518518518518517,0.0205761316872428,0.0205761316872428,0.0205761316872428,0.0205761316872428,0.0,0.0,0.0,0.0205761316872428,0.0205761316872428,0.0205761316872428,0.0205761316872428,0.0205761316872428,0.0205761316872428,0.0205761316872428,0.0205761316872428,0.0205761316872428,0.0205761316872428,0.0205761316872428,0.0205761316872428,0.0205761316872428,0.0205761316872428,0.0205761316872428,0.0205761316872428,0.0205761316872428,0.0205761316872428,0.0205761316872428,0.0205761316872428,0.0205761316872428,0.0205761316872428,0.0205761316872428,0.0205761316872428,0.0205761316872428,0.0205761316872428,0.0205761316872428,0.0205761316872428,0.0205761316872428
S4_D2 hbo,0.011444921316165951,0.02145922746781116,0.01430615164520744,0.020028612303290415,0.01859799713876967,0.02145922746781116,0.01859799713876967,0.02145922746781116,0.012875536480686695,0.02145922746781116,0.02145922746781116,0.022889842632331903,0.02145922746781116,0.02145922746781116,0.020028612303290415,0.012875536480686695,0.01859799713876967,0.020028612303290415,0.02145922746781116,0.020028612303290415,0.0,0.0,0.0,0.02145922746781116,0.01859799713876967,0.020028612303290415,0.020028612303290415,0.022889842632331903,0.022889842632331903,0.02145922746781116,0.01859799713876967,0.022889842632331903,0.022889842632331903,0.022889842632331903,0.02145922746781116,0.02145922746781116,0.022889842632331903,0.022889842632331903,0.022889842632331903,0.02145922746781116,0.022889842632331903,0.020028612303290415,0.020028612303290415,0.022889842632331903,0.01859799713876967,0.022889842632331903,0.02145922746781116,0.01430615164520744,0.02145922746781116,0.020028612303290415,0.022889842632331903,0.022889842632331903
S4_D4 hbo,0.011444921316165951,0.02145922746781116,0.01430615164520744,0.020028612303290415,0.01859799713876967,0.02145922746781116,0.01859799713876967,0.02145922746781116,0.012875536480686695,0.02145922746781116,0.02145922746781116,0.022889842632331903,0.02145922746781116,0.02145922746781116,0.020028612303290415,0.012875536480686695,0.01859799713876967,0.020028612303290415,0.02145922746781116,0.020028612303290415,0.0,0.0,0.0,0.02145922746781116,0.01859799713876967,0.020028612303290415,0.020028612303290415,0.022889842632331903,0.022889842632331903,0.02145922746781116,0.01859799713876967,0.022889842632331903,0.022889842632331903,0.022889842632331903,0.02145922746781116,0.02145922746781116,0.022889842632331903,0.022889842632331903,0.022889842632331903,0.02145922746781116,0.022889842632331903,0.020028612303290415,0.020028612303290415,0.022889842632331903,0.01859799713876967,0.022889842632331903,0.02145922746781116,0.01430615164520744,0.02145922746781116,0.020028612303290415,0.022889842632331903,0.022889842632331903
S4_D6 hbo,0.011396011396011397,0.021367521367521368,0.014245014245014245,0.019943019943019943,0.018518518518518517,0.021367521367521368,0.018518518518518517,0.021367521367521368,0.01282051282051282,0.021367521367521368,0.021367521367521368,0.022792022792022793,0.021367521367521368,0.021367521367521368,0.019943019943019943,0.01282051282051282,0.018518518518518517,0.019943019943019943,0.021367521367521368,0.019943019943019943,0.0,0.0,0.0,0.021367521367521368,0.018518518518518517,0.019943019943019943,0.019943019943019943,0.022792022792022793,0.022792022792022793,0.021367521367521368,0.018518518518518517,0.022792022792022793,0.022792022792022793,0.022792022792022793,0.021367521367521368,0.021367521367521368,0.024216524216524215,0.024216524216524215,0.024216524216524215,0.021367521367521368,0.022792022792022793,0.019943019943019943,0.019943019943019943,0.022792022792022793,0.018518518518518517,0.022792022792022793,0.021367521367521368,0.014245014245014245,0.021367521367521368,0.019943019943019943,0.022792022792022793,0.022792022792022793
S4_D11 hbo,0.011444921316165951,0.02145922746781116,0.01430615164520744,0.020028612303290415,0.01859799713876967,0.02145922746781116,0.01859799713876967,0.02145922746781116,0.012875536480686695,0.02145922746781116,0.02145922746781116,0.022889842632331903,0.02145922746781116,0.02145922746781116,0.020028612303290415,0.012875536480686695,0.01859799713876967,0.020028612303290415,0.02145922746781116,0.020028612303290415,0.0,0.0,0.0,0.02145922746781116,0.01859799713876967,0.020028612303290415,0.020028612303290415,0.022889842632331903,0.022889842632331903,0.02145922746781116,0.01859799713876967,0.022889842632331903,0.022889842632331903,0.022889842632331903,0.02145922746781116,0.02145922746781116,0.022889842632331903,0.022889842632331903,0.022889842632331903,0.02145922746781116,0.022889842632331903,0.020028612303290415,0.020028612303290415,0.022889842632331903,0.01859799713876967,0.022889842632331903,0.02145922746781116,0.01430615164520744,0.02145922746781116,0.020028612303290415,0.022889842632331903,0.022889842632331903
S5_D3 hbo,0.011444921316165951,0.02145922746781116,0.01430615164520744,0.020028612303290415,0.01859799713876967,0.02145922746781116,0.01859799713876967,0.02145922746781116,0.012875536480686695,0.02145922746781116,0.02145922746781116,0.022889842632331903,0.02145922746781116,0.02145922746781116,0.020028612303290415,0.012875536480686695,0.01859799713876967,0.020028612303290415,0.02145922746781116,0.020028612303290415,0.0,0.0,0.0,0.02145922746781116,0.01859799713876967,0.020028612303290415,0.020028612303290415,0.022889842632331903,0.022889842632331903,0.02145922746781116,0.01859799713876967,0.022889842632331903,0.022889842632331903,0.022889842632331903,0.02145922746781116,0.02145922746781116,0.022889842632331903,0.022889842632331903,0.022889842632331903,0.02145922746781116,0.022889842632331903,0.020028612303290415,0.020028612303290415,0.022889842632331903,0.01859799713876967,0.022889842632331903,0.02145922746781116,0.01430615164520744,0.02145922746781116,0.020028612303290415,0.022889842632331903,0.022889842632331903
S5_D5 hbo,0.01167883211678832,0.021897810218978103,0.014598540145985401,0.020437956204379562,0.01897810218978102,0.021897810218978103,0.01897810218978102,0.021897810218978103,0.013138686131386862,0.021897810218978103,0.021897810218978103,0.021897810218978103,0.021897810218978103,0.021897810218978103,0.020437956204379562,0.013138686131386862,0.01897810218978102,0.020437956204379562,0.021897810218978103,0.020437956204379562,0.0,0.0,0.0,0.021897810218978103,0.01897810218978102,0.020437956204379562,0.020437956204379562,0.021897810218978103,0.021897810218978103,0.021897810218978103,0.01897810218978102,0.021897810218978103,0.021897810218978103,0.021897810218978103,0.021897810218978103,0.021897810218978103,0.021897810218978103,0.021897810218978103,0.021897810218978103,0.021897810218978103,0.021897810218978103,0.020437956204379562,0.020437956204379562,0.021897810218978103,0.01897810218978102,0.021897810218978103,0.021897810218978103,0.014598540145985401,0.021897810218978103,0.020437956204379562,0.021897810218978103,0.021897810218978103
S5_D7 hbo,0.01646090534979424,0.0205761316872428,0.0205761316872428,0.0205761316872428,0.0205761316872428,0.0205761316872428,0.0205761316872428,0.0205761316872428,0.018518518518518517,0.0205761316872428,0.0205761316872428,0.0205761316872428,0.0205761316872428,0.0205761316872428,0.0205761316872428,0.018518518518518517,0.0205761316872428,0.0205761316872428,0.0205761316872428,0.0205761316872428,0.0,0.0,0.0,0.0205761316872428,0.0205761316872428,0.0205761316872428,0.0205761316872428,0.0205761316872428,0.0205761316872428,0.0205761316872428,0.0205761316872428,0.0205761316872428,0.0205761316872428,0.0205761316872428,0.0205761316872428,0.0205761316872428,0.0205761316872428,0.0205761316872428,0.0205761316872428,0.0205761316872428,0.0205761316872428,0.0205761316872428,0.0205761316872428,0.0205761316872428,0.0205761316872428,0.0205761316872428,0.0205761316872428,0.0205761316872428,0.0205761316872428,0.0205761316872428,0.0205761316872428,0.0205761316872428
S6_D4 hbo,0.012195121951219513,0.021341463414634148,0.01524390243902439,0.021341463414634148,0.019817073170731708,0.021341463414634148,0.019817073170731708,0.021341463414634148,0.013719512195121951,0.021341463414634148,0.021341463414634148,0.021341463414634148,0.021341463414634148,0.021341463414634148,0.021341463414634148,0.013719512195121951,0.019817073170731708,0.021341463414634148,0.021341463414634148,0.021341463414634148,0.0,0.0,0.0,0.021341463414634148,0.019817073170731708,0.021341463414634148,0.021341463414634148,0.021341463414634148,0.021341463414634148,0.021341463414634148,0.019817073170731708,0.021341463414634148,0.021341463414634148,0.021341463414634148,0.021341463414634148,0.021341463414634148,0.021341463414634148,0.021341463414634148,0.021341463414634148,0.021341463414634148,0.021341463414634148,0.021341463414634148,0.021341463414634148,0.021341463414634148,0.019817073170731708,0.021341463414634148,0.021341463414634148,0.01524390243902439,0.021341463414634148,0.021341463414634148,0.021341463414634148,0.021341463414634148
S6_D5 hbo,0.01167883211678832,0.021897810218978103,0.014598540145985401,0.020437956204379562,0.01897810218978102,0.021897810218978103,0.01897810218978102,0.021897810218978103,0.013138686131386862,0.021897810218978103,0.021897810218978103,0.021897810218978103,0.021897810218978103,0.021897810218978103,0.020437956204379562,0.013138686131386862,0.01897810218978102,0.020437956204379562,0.021897810218978103,0.020437956204379562,0.0,0.0,0.0,0.021897810218978103,0.01897810218978102,0.020437956204379562,0.020437956204379562,0.021897810218978103,0.021897810218978103,0.021897810218978103,0.01897810218978102,0.021897810218978103,0.021897810218978103,0.021897810218978103,0.021897810218978103,0.021897810218978103,0.021897810218978103,0.021897810218978103,0.021897810218978103,0.021897810218978103,0.021897810218978103,0.020437956204379562,0.020437956204379562,0.021897810218978103,0.01897810218978102,0.021897810218978103,0.021897810218978103,0.014598540145985401,0.021897810218978103,0.020437956204379562,0.021897810218978103,0.021897810218978103
S6_D6 hbo,0.011444921316165951,0.02145922746781116,0.01430615164520744,0.020028612303290415,0.01859799713876967,0.02145922746781116,0.01859799713876967,0.02145922746781116,0.012875536480686695,0.02145922746781116,0.02145922746781116,0.022889842632331903,0.02145922746781116,0.02145922746781116,0.020028612303290415,0.012875536480686695,0.01859799713876967,0.020028612303290415,0.02145922746781116,0.020028612303290415,0.0,0.0,0.0,0.02145922746781116,0.01859799713876967,0.020028612303290415,0.020028612303290415,0.022889842632331903,0.022889842632331903,0.02145922746781116,0.01859799713876967,0.022889842632331903,0.022889842632331903,0.022889842632331903,0.02145922746781116,0.02145922746781116,0.022889842632331903,0.022889842632331903,0.022889842632331903,0.02145922746781116,0.022889842632331903,0.020028612303290415,0.020028612303290415,0.022889842632331903,0.01859799713876967,0.022889842632331903,0.02145922746781116,0.01430615164520744,0.02145922746781116,0.020028612303290415,0.022889842632331903,0.022889842632331903
S6_D8 hbo,0.01167883211678832,0.021897810218978103,0.014598540145985401,0.020437956204379562,0.01897810218978102,0.021897810218978103,0.01897810218978102,0.021897810218978103,0.013138686131386862,0.021897810218978103,0.021897810218978103,0.021897810218978103,0.021897810218978103,0.021897810218978103,0.020437956204379562,0.013138686131386862,0.01897810218978102,0.020437956204379562,0.021897810218978103,0.020437956204379562,0.0,0.0,0.0,0.021897810218978103,0.01897810218978102,0.020437956204379562,0.020437956204379562,0.021897810218978103,0.021897810218978103,0.021897810218978103,0.01897810218978102,0.021897810218978103,0.021897810218978103,0.021897810218978103,0.021897810218978103,0.021897810218978103,0.021897810218978103,0.021897810218978103,0.021897810218978103,0.021897810218978103,0.021897810218978103,0.020437956204379562,0.020437956204379562,0.021897810218978103,0.01897810218978102,0.021897810218978103,0.021897810218978103,0.014598540145985401,0.021897810218978103,0.020437956204379562,0.021897810218978103,0.021897810218978103
S7_D5 hbo,0.0,0.0,0.0,0.0,0.0,0.0,0.0,0.0,0.0,0.0,0.0,0.0,0.0,0.0,0.0,0.0,0.0,0.0,0.0,0.0,0.0,0.0,0.0,0.0,0.0,0.0,0.0,0.0,0.0,0.0,0.0,0.0,0.0,0.0,0.0,0.0,0.0,0.0,0.0,0.0,0.0,0.0,0.0,0.0,0.0,0.0,0.0,0.0,0.0,0.0,0.0,0.0
S7_D7 hbo,0.0,0.0,0.0,0.0,0.0,0.0,0.0,0.0,0.0,0.0,0.0,0.0,0.0,0.0,0.0,0.0,0.0,0.0,0.0,0.0,0.0,0.0,0.0,0.0,0.0,0.0,0.0,0.0,0.0,0.0,0.0,0.0,0.0,0.0,0.0,0.0,0.0,0.0,0.0,0.0,0.0,0.0,0.0,0.0,0.0,0.0,0.0,0.0,0.0,0.0,0.0,0.0
S7_D8 hbo,0.0,0.0,0.0,0.0,0.0,0.0,0.0,0.0,0.0,0.0,0.0,0.0,0.0,0.0,0.0,0.0,0.0,0.0,0.0,0.0,0.0,0.0,0.0,0.0,0.0,0.0,0.0,0.0,0.0,0.0,0.0,0.0,0.0,0.0,0.0,0.0,0.0,0.0,0.0,0.0,0.0,0.0,0.0,0.0,0.0,0.0,0.0,0.0,0.0,0.0,0.0,0.0
S8_D6 hbo,0.011444921316165951,0.02145922746781116,0.01430615164520744,0.020028612303290415,0.01859799713876967,0.02145922746781116,0.01859799713876967,0.02145922746781116,0.012875536480686695,0.02145922746781116,0.02145922746781116,0.022889842632331903,0.02145922746781116,0.02145922746781116,0.020028612303290415,0.012875536480686695,0.01859799713876967,0.020028612303290415,0.02145922746781116,0.020028612303290415,0.0,0.0,0.0,0.02145922746781116,0.01859799713876967,0.020028612303290415,0.020028612303290415,0.022889842632331903,0.022889842632331903,0.02145922746781116,0.01859799713876967,0.022889842632331903,0.022889842632331903,0.022889842632331903,0.02145922746781116,0.02145922746781116,0.022889842632331903,0.022889842632331903,0.022889842632331903,0.02145922746781116,0.022889842632331903,0.020028612303290415,0.020028612303290415,0.022889842632331903,0.01859799713876967,0.022889842632331903,0.02145922746781116,0.01430615164520744,0.02145922746781116,0.020028612303290415,0.022889842632331903,0.022889842632331903
S8_D8 hbo,0.012195121951219513,0.021341463414634148,0.01524390243902439,0.021341463414634148,0.019817073170731708,0.021341463414634148,0.019817073170731708,0.021341463414634148,0.013719512195121951,0.021341463414634148,0.021341463414634148,0.021341463414634148,0.021341463414634148,0.021341463414634148,0.021341463414634148,0.013719512195121951,0.019817073170731708,0.021341463414634148,0.021341463414634148,0.021341463414634148,0.0,0.0,0.0,0.021341463414634148,0.019817073170731708,0.021341463414634148,0.021341463414634148,0.021341463414634148,0.021341463414634148,0.021341463414634148,0.019817073170731708,0.021341463414634148,0.021341463414634148,0.021341463414634148,0.021341463414634148,0.021341463414634148,0.021341463414634148,0.021341463414634148,0.021341463414634148,0.021341463414634148,0.021341463414634148,0.021341463414634148,0.021341463414634148,0.021341463414634148,0.019817073170731708,0.021341463414634148,0.021341463414634148,0.01524390243902439,0.021341463414634148,0.021341463414634148,0.021341463414634148,0.021341463414634148
S8_D15 hbo,0.01167883211678832,0.021897810218978103,0.014598540145985401,0.020437956204379562,0.01897810218978102,0.021897810218978103,0.01897810218978102,0.021897810218978103,0.013138686131386862,0.021897810218978103,0.021897810218978103,0.021897810218978103,0.021897810218978103,0.021897810218978103,0.020437956204379562,0.013138686131386862,0.01897810218978102,0.020437956204379562,0.021897810218978103,0.020437956204379562,0.0,0.0,0.0,0.021897810218978103,0.01897810218978102,0.020437956204379562,0.020437956204379562,0.021897810218978103,0.021897810218978103,0.021897810218978103,0.01897810218978102,0.021897810218978103,0.021897810218978103,0.021897810218978103,0.021897810218978103,0.021897810218978103,0.021897810218978103,0.021897810218978103,0.021897810218978103,0.021897810218978103,0.021897810218978103,0.020437956204379562,0.020437956204379562,0.021897810218978103,0.01897810218978102,0.021897810218978103,0.021897810218978103,0.014598540145985401,0.021897810218978103,0.020437956204379562,0.021897810218978103,0.021897810218978103
S9_D2 hbo,0.01167883211678832,0.021897810218978103,0.014598540145985401,0.020437956204379562,0.01897810218978102,0.021897810218978103,0.01897810218978102,0.021897810218978103,0.013138686131386862,0.021897810218978103,0.021897810218978103,0.021897810218978103,0.021897810218978103,0.021897810218978103,0.020437956204379562,0.013138686131386862,0.01897810218978102,0.020437956204379562,0.021897810218978103,0.020437956204379562,0.0,0.0,0.0,0.021897810218978103,0.01897810218978102,0.020437956204379562,0.020437956204379562,0.021897810218978103,0.021897810218978103,0.021897810218978103,0.01897810218978102,0.021897810218978103,0.021897810218978103,0.021897810218978103,0.021897810218978103,0.021897810218978103,0.021897810218978103,0.021897810218978103,0.021897810218978103,0.021897810218978103,0.021897810218978103,0.020437956204379562,0.020437956204379562,0.021897810218978103,0.01897810218978102,0.021897810218978103,0.021897810218978103,0.014598540145985401,0.021897810218978103,0.020437956204379562,0.021897810218978103,0.021897810218978103
S9_D9 hbo,0.011396011396011397,0.021367521367521368,0.014245014245014245,0.019943019943019943,0.018518518518518517,0.021367521367521368,0.018518518518518517,0.021367521367521368,0.01282051282051282,0.021367521367521368,0.021367521367521368,0.022792022792022793,0.021367521367521368,0.021367521367521368,0.019943019943019943,0.01282051282051282,0.018518518518518517,0.019943019943019943,0.021367521367521368,0.019943019943019943,0.0,0.0,0.0,0.021367521367521368,0.018518518518518517,0.019943019943019943,0.019943019943019943,0.022792022792022793,0.022792022792022793,0.021367521367521368,0.018518518518518517,0.022792022792022793,0.022792022792022793,0.022792022792022793,0.021367521367521368,0.021367521367521368,0.024216524216524215,0.024216524216524215,0.024216524216524215,0.021367521367521368,0.022792022792022793,0.019943019943019943,0.019943019943019943,0.022792022792022793,0.018518518518518517,0.022792022792022793,0.021367521367521368,0.014245014245014245,0.021367521367521368,0.019943019943019943,0.022792022792022793,0.022792022792022793
S9_D11 hbo,0.011396011396011397,0.021367521367521368,0.014245014245014245,0.019943019943019943,0.018518518518518517,0.021367521367521368,0.018518518518518517,0.021367521367521368,0.01282051282051282,0.021367521367521368,0.021367521367521368,0.022792022792022793,0.021367521367521368,0.021367521367521368,0.019943019943019943,0.01282051282051282,0.018518518518518517,0.019943019943019943,0.021367521367521368,0.019943019943019943,0.0,0.0,0.0,0.021367521367521368,0.018518518518518517,0.019943019943019943,0.019943019943019943,0.022792022792022793,0.022792022792022793,0.021367521367521368,0.018518518518518517,0.022792022792022793,0.022792022792022793,0.022792022792022793,0.021367521367521368,0.021367521367521368,0.024216524216524215,0.024216524216524215,0.024216524216524215,0.021367521367521368,0.022792022792022793,0.019943019943019943,0.019943019943019943,0.022792022792022793,0.018518518518518517,0.022792022792022793,0.021367521367521368,0.014245014245014245,0.021367521367521368,0.019943019943019943,0.022792022792022793,0.022792022792022793
S10_D9 hbo,0.011444921316165951,0.02145922746781116,0.01430615164520744,0.020028612303290415,0.01859799713876967,0.02145922746781116,0.01859799713876967,0.02145922746781116,0.012875536480686695,0.02145922746781116,0.02145922746781116,0.022889842632331903,0.02145922746781116,0.02145922746781116,0.020028612303290415,0.012875536480686695,0.01859799713876967,0.020028612303290415,0.02145922746781116,0.020028612303290415,0.0,0.0,0.0,0.02145922746781116,0.01859799713876967,0.020028612303290415,0.020028612303290415,0.022889842632331903,0.022889842632331903,0.02145922746781116,0.01859799713876967,0.022889842632331903,0.022889842632331903,0.022889842632331903,0.02145922746781116,0.02145922746781116,0.022889842632331903,0.022889842632331903,0.022889842632331903,0.02145922746781116,0.022889842632331903,0.020028612303290415,0.020028612303290415,0.022889842632331903,0.01859799713876967,0.022889842632331903,0.02145922746781116,0.01430615164520744,0.02145922746781116,0.020028612303290415,0.022889842632331903,0.022889842632331903
S10_D10 hbo,0.012195121951219513,0.021341463414634148,0.01524390243902439,0.021341463414634148,0.019817073170731708,0.021341463414634148,0.019817073170731708,0.021341463414634148,0.013719512195121951,0.021341463414634148,0.021341463414634148,0.021341463414634148,0.021341463414634148,0.021341463414634148,0.021341463414634148,0.013719512195121951,0.019817073170731708,0.021341463414634148,0.021341463414634148,0.021341463414634148,0.0,0.0,0.0,0.021341463414634148,0.019817073170731708,0.021341463414634148,0.021341463414634148,0.021341463414634148,0.021341463414634148,0.021341463414634148,0.019817073170731708,0.021341463414634148,0.021341463414634148,0.021341463414634148,0.021341463414634148,0.021341463414634148,0.021341463414634148,0.021341463414634148,0.021341463414634148,0.021341463414634148,0.021341463414634148,0.021341463414634148,0.021341463414634148,0.021341463414634148,0.019817073170731708,0.021341463414634148,0.021341463414634148,0.01524390243902439,0.021341463414634148,0.021341463414634148,0.021341463414634148,0.021341463414634148
S10_D12 hbo,0.011396011396011397,0.021367521367521368,0.014245014245014245,0.019943019943019943,0.018518518518518517,0.021367521367521368,0.018518518518518517,0.021367521367521368,0.01282051282051282,0.021367521367521368,0.021367521367521368,0.022792022792022793,0.021367521367521368,0.021367521367521368,0.019943019943019943,0.01282051282051282,0.018518518518518517,0.019943019943019943,0.021367521367521368,0.019943019943019943,0.0,0.0,0.0,0.021367521367521368,0.018518518518518517,0.019943019943019943,0.019943019943019943,0.022792022792022793,0.022792022792022793,0.021367521367521368,0.018518518518518517,0.022792022792022793,0.022792022792022793,0.022792022792022793,0.021367521367521368,0.021367521367521368,0.024216524216524215,0.024216524216524215,0.024216524216524215,0.021367521367521368,0.022792022792022793,0.019943019943019943,0.019943019943019943,0.022792022792022793,0.018518518518518517,0.022792022792022793,0.021367521367521368,0.014245014245014245,0.021367521367521368,0.019943019943019943,0.022792022792022793,0.022792022792022793
S11_D9 hbo,0.011396011396011397,0.021367521367521368,0.014245014245014245,0.019943019943019943,0.018518518518518517,0.021367521367521368,0.018518518518518517,0.021367521367521368,0.01282051282051282,0.021367521367521368,0.021367521367521368,0.022792022792022793,0.021367521367521368,0.021367521367521368,0.019943019943019943,0.01282051282051282,0.018518518518518517,0.019943019943019943,0.021367521367521368,0.019943019943019943,0.0,0.0,0.0,0.021367521367521368,0.018518518518518517,0.019943019943019943,0.019943019943019943,0.022792022792022793,0.022792022792022793,0.021367521367521368,0.018518518518518517,0.022792022792022793,0.022792022792022793,0.022792022792022793,0.021367521367521368,0.021367521367521368,0.024216524216524215,0.024216524216524215,0.024216524216524215,0.021367521367521368,0.022792022792022793,0.019943019943019943,0.019943019943019943,0.022792022792022793,0.018518518518518517,0.022792022792022793,0.021367521367521368,0.014245014245014245,0.021367521367521368,0.019943019943019943,0.022792022792022793,0.022792022792022793
S11_D11 hbo,0.011396011396011397,0.021367521367521368,0.014245014245014245,0.019943019943019943,0.018518518518518517,0.021367521367521368,0.018518518518518517,0.021367521367521368,0.01282051282051282,0.021367521367521368,0.021367521367521368,0.022792022792022793,0.021367521367521368,0.021367521367521368,0.019943019943019943,0.01282051282051282,0.018518518518518517,0.019943019943019943,0.021367521367521368,0.019943019943019943,0.0,0.0,0.0,0.021367521367521368,0.018518518518518517,0.019943019943019943,0.019943019943019943,0.022792022792022793,0.022792022792022793,0.021367521367521368,0.018518518518518517,0.022792022792022793,0.022792022792022793,0.022792022792022793,0.021367521367521368,0.021367521367521368,0.024216524216524215,0.024216524216524215,0.024216524216524215,0.021367521367521368,0.022792022792022793,0.019943019943019943,0.019943019943019943,0.022792022792022793,0.018518518518518517,0.022792022792022793,0.021367521367521368,0.014245014245014245,0.021367521367521368,0.019943019943019943,0.022792022792022793,0.022792022792022793
S11_D12 hbo,0.011444921316165951,0.02145922746781116,0.01430615164520744,0.020028612303290415,0.01859799713876967,0.02145922746781116,0.01859799713876967,0.02145922746781116,0.012875536480686695,0.02145922746781116,0.02145922746781116,0.022889842632331903,0.02145922746781116,0.02145922746781116,0.020028612303290415,0.012875536480686695,0.01859799713876967,0.020028612303290415,0.02145922746781116,0.020028612303290415,0.0,0.0,0.0,0.02145922746781116,0.01859799713876967,0.020028612303290415,0.020028612303290415,0.022889842632331903,0.022889842632331903,0.02145922746781116,0.01859799713876967,0.022889842632331903,0.022889842632331903,0.022889842632331903,0.02145922746781116,0.02145922746781116,0.022889842632331903,0.022889842632331903,0.022889842632331903,0.02145922746781116,0.022889842632331903,0.020028612303290415,0.020028612303290415,0.022889842632331903,0.01859799713876967,0.022889842632331903,0.02145922746781116,0.01430615164520744,0.02145922746781116,0.020028612303290415,0.022889842632331903,0.022889842632331903
S11_D13 hbo,0.011444921316165951,0.02145922746781116,0.01430615164520744,0.020028612303290415,0.01859799713876967,0.02145922746781116,0.01859799713876967,0.02145922746781116,0.012875536480686695,0.02145922746781116,0.02145922746781116,0.022889842632331903,0.02145922746781116,0.02145922746781116,0.020028612303290415,0.012875536480686695,0.01859799713876967,0.020028612303290415,0.02145922746781116,0.020028612303290415,0.0,0.0,0.0,0.02145922746781116,0.01859799713876967,0.020028612303290415,0.020028612303290415,0.022889842632331903,0.022889842632331903,0.02145922746781116,0.01859799713876967,0.022889842632331903,0.022889842632331903,0.022889842632331903,0.02145922746781116,0.02145922746781116,0.022889842632331903,0.022889842632331903,0.022889842632331903,0.02145922746781116,0.022889842632331903,0.020028612303290415,0.020028612303290415,0.022889842632331903,0.01859799713876967,0.022889842632331903,0.02145922746781116,0.01430615164520744,0.02145922746781116,0.020028612303290415,0.022889842632331903,0.022889842632331903
S12_D10 hbo,0.011363636363636364,0.02130681818181818,0.014204545454545454,0.019886363636363636,0.018465909090909092,0.02130681818181818,0.018465909090909092,0.02130681818181818,0.01278409090909091,0.02130681818181818,0.02130681818181818,0.022727272727272728,0.02130681818181818,0.02130681818181818,0.019886363636363636,0.01278409090909091,0.018465909090909092,0.019886363636363636,0.02130681818181818,0.019886363636363636,0.0,0.0,0.0,0.02130681818181818,0.018465909090909092,0.019886363636363636,0.019886363636363636,0.022727272727272728,0.022727272727272728,0.02130681818181818,0.018465909090909092,0.022727272727272728,0.022727272727272728,0.022727272727272728,0.02130681818181818,0.02130681818181818,0.026988636363636364,0.024147727272727272,0.024147727272727272,0.02130681818181818,0.022727272727272728,0.019886363636363636,0.019886363636363636,0.022727272727272728,0.018465909090909092,0.022727272727272728,0.02130681818181818,0.014204545454545454,0.02130681818181818,0.019886363636363636,0.022727272727272728,0.022727272727272728
S12_D12 hbo,0.011379800853485065,0.021337126600284494,0.01422475106685633,0.01991465149359886,0.01849217638691323,0.021337126600284494,0.01849217638691323,0.021337126600284494,0.012802275960170697,0.021337126600284494,0.021337126600284494,0.02275960170697013,0.021337126600284494,0.021337126600284494,0.01991465149359886,0.012802275960170697,0.01849217638691323,0.01991465149359886,0.021337126600284494,0.01991465149359886,0.0,0.0,0.0,0.021337126600284494,0.01849217638691323,0.01991465149359886,0.01991465149359886,0.02275960170697013,0.02275960170697013,0.021337126600284494,0.01849217638691323,0.02275960170697013,0.02275960170697013,0.02275960170697013,0.021337126600284494,0.021337126600284494,0.025604551920341393,0.02418207681365576,0.02418207681365576,0.021337126600284494,0.02275960170697013,0.01991465149359886,0.01991465149359886,0.02275960170697013,0.01849217638691323,0.02275960170697013,0.021337126600284494,0.01422475106685633,0.021337126600284494,0.01991465149359886,0.02275960170697013,0.02275960170697013
S12_D14 hbo,0.011379800853485065,0.021337126600284494,0.01422475106685633,0.01991465149359886,0.01849217638691323,0.021337126600284494,0.01849217638691323,0.021337126600284494,0.012802275960170697,0.021337126600284494,0.021337126600284494,0.02275960170697013,0.021337126600284494,0.021337126600284494,0.01991465149359886,0.012802275960170697,0.01849217638691323,0.01991465149359886,0.021337126600284494,0.01991465149359886,0.0,0.0,0.0,0.021337126600284494,0.01849217638691323,0.01991465149359886,0.01991465149359886,0.02275960170697013,0.02275960170697013,0.021337126600284494,0.01849217638691323,0.02275960170697013,0.02275960170697013,0.02275960170697013,0.021337126600284494,0.021337126600284494,0.025604551920341393,0.02418207681365576,0.02418207681365576,0.021337126600284494,0.02275960170697013,0.01991465149359886,0.01991465149359886,0.02275960170697013,0.01849217638691323,0.02275960170697013,0.021337126600284494,0.01422475106685633,0.021337126600284494,0.01991465149359886,0.02275960170697013,0.02275960170697013
S13_D6 hbo,0.011444921316165951,0.02145922746781116,0.01430615164520744,0.020028612303290415,0.01859799713876967,0.02145922746781116,0.01859799713876967,0.02145922746781116,0.012875536480686695,0.02145922746781116,0.02145922746781116,0.022889842632331903,0.02145922746781116,0.02145922746781116,0.020028612303290415,0.012875536480686695,0.01859799713876967,0.020028612303290415,0.02145922746781116,0.020028612303290415,0.0,0.0,0.0,0.02145922746781116,0.01859799713876967,0.020028612303290415,0.020028612303290415,0.022889842632331903,0.022889842632331903,0.02145922746781116,0.01859799713876967,0.022889842632331903,0.022889842632331903,0.022889842632331903,0.02145922746781116,0.02145922746781116,0.022889842632331903,0.022889842632331903,0.022889842632331903,0.02145922746781116,0.022889842632331903,0.020028612303290415,0.020028612303290415,0.022889842632331903,0.01859799713876967,0.022889842632331903,0.02145922746781116,0.01430615164520744,0.02145922746781116,0.020028612303290415,0.022889842632331903,0.022889842632331903
S13_D11 hbo,0.011396011396011397,0.021367521367521368,0.014245014245014245,0.019943019943019943,0.018518518518518517,0.021367521367521368,0.018518518518518517,0.021367521367521368,0.01282051282051282,0.021367521367521368,0.021367521367521368,0.022792022792022793,0.021367521367521368,0.021367521367521368,0.019943019943019943,0.01282051282051282,0.018518518518518517,0.019943019943019943,0.021367521367521368,0.019943019943019943,0.0,0.0,0.0,0.021367521367521368,0.018518518518518517,0.019943019943019943,0.019943019943019943,0.022792022792022793,0.022792022792022793,0.021367521367521368,0.018518518518518517,0.022792022792022793,0.022792022792022793,0.022792022792022793,0.021367521367521368,0.021367521367521368,0.024216524216524215,0.024216524216524215,0.024216524216524215,0.021367521367521368,0.022792022792022793,0.019943019943019943,0.019943019943019943,0.022792022792022793,0.018518518518518517,0.022792022792022793,0.021367521367521368,0.014245014245014245,0.021367521367521368,0.019943019943019943,0.022792022792022793,0.022792022792022793
S13_D13 hbo,0.01167883211678832,0.021897810218978103,0.014598540145985401,0.020437956204379562,0.01897810218978102,0.021897810218978103,0.01897810218978102,0.021897810218978103,0.013138686131386862,0.021897810218978103,0.021897810218978103,0.021897810218978103,0.021897810218978103,0.021897810218978103,0.020437956204379562,0.013138686131386862,0.01897810218978102,0.020437956204379562,0.021897810218978103,0.020437956204379562,0.0,0.0,0.0,0.021897810218978103,0.01897810218978102,0.020437956204379562,0.020437956204379562,0.021897810218978103,0.021897810218978103,0.021897810218978103,0.01897810218978102,0.021897810218978103,0.021897810218978103,0.021897810218978103,0.021897810218978103,0.021897810218978103,0.021897810218978103,0.021897810218978103,0.021897810218978103,0.021897810218978103,0.021897810218978103,0.020437956204379562,0.020437956204379562,0.021897810218978103,0.01897810218978102,0.021897810218978103,0.021897810218978103,0.014598540145985401,0.021897810218978103,0.020437956204379562,0.021897810218978103,0.021897810218978103
S13_D15 hbo,0.01167883211678832,0.021897810218978103,0.014598540145985401,0.020437956204379562,0.01897810218978102,0.021897810218978103,0.01897810218978102,0.021897810218978103,0.013138686131386862,0.021897810218978103,0.021897810218978103,0.021897810218978103,0.021897810218978103,0.021897810218978103,0.020437956204379562,0.013138686131386862,0.01897810218978102,0.020437956204379562,0.021897810218978103,0.020437956204379562,0.0,0.0,0.0,0.021897810218978103,0.01897810218978102,0.020437956204379562,0.020437956204379562,0.021897810218978103,0.021897810218978103,0.021897810218978103,0.01897810218978102,0.021897810218978103,0.021897810218978103,0.021897810218978103,0.021897810218978103,0.021897810218978103,0.021897810218978103,0.021897810218978103,0.021897810218978103,0.021897810218978103,0.021897810218978103,0.020437956204379562,0.020437956204379562,0.021897810218978103,0.01897810218978102,0.021897810218978103,0.021897810218978103,0.014598540145985401,0.021897810218978103,0.020437956204379562,0.021897810218978103,0.021897810218978103
S14_D12 hbo,0.011396011396011397,0.021367521367521368,0.014245014245014245,0.019943019943019943,0.018518518518518517,0.021367521367521368,0.018518518518518517,0.021367521367521368,0.01282051282051282,0.021367521367521368,0.021367521367521368,0.022792022792022793,0.021367521367521368,0.021367521367521368,0.019943019943019943,0.01282051282051282,0.018518518518518517,0.019943019943019943,0.021367521367521368,0.019943019943019943,0.0,0.0,0.0,0.021367521367521368,0.018518518518518517,0.019943019943019943,0.019943019943019943,0.022792022792022793,0.022792022792022793,0.021367521367521368,0.018518518518518517,0.022792022792022793,0.022792022792022793,0.022792022792022793,0.021367521367521368,0.021367521367521368,0.024216524216524215,0.024216524216524215,0.024216524216524215,0.021367521367521368,0.022792022792022793,0.019943019943019943,0.019943019943019943,0.022792022792022793,0.018518518518518517,0.022792022792022793,0.021367521367521368,0.014245014245014245,0.021367521367521368,0.019943019943019943,0.022792022792022793,0.022792022792022793
S14_D13 hbo,0.012195121951219513,0.021341463414634148,0.01524390243902439,0.021341463414634148,0.019817073170731708,0.021341463414634148,0.019817073170731708,0.021341463414634148,0.013719512195121951,0.021341463414634148,0.021341463414634148,0.021341463414634148,0.021341463414634148,0.021341463414634148,0.021341463414634148,0.013719512195121951,0.019817073170731708,0.021341463414634148,0.021341463414634148,0.021341463414634148,0.0,0.0,0.0,0.021341463414634148,0.019817073170731708,0.021341463414634148,0.021341463414634148,0.021341463414634148,0.021341463414634148,0.021341463414634148,0.019817073170731708,0.021341463414634148,0.021341463414634148,0.021341463414634148,0.021341463414634148,0.021341463414634148,0.021341463414634148,0.021341463414634148,0.021341463414634148,0.021341463414634148,0.021341463414634148,0.021341463414634148,0.021341463414634148,0.021341463414634148,0.019817073170731708,0.021341463414634148,0.021341463414634148,0.01524390243902439,0.021341463414634148,0.021341463414634148,0.021341463414634148,0.021341463414634148
S14_D14 hbo,0.011396011396011397,0.021367521367521368,0.014245014245014245,0.019943019943019943,0.018518518518518517,0.021367521367521368,0.018518518518518517,0.021367521367521368,0.01282051282051282,0.021367521367521368,0.021367521367521368,0.022792022792022793,0.021367521367521368,0.021367521367521368,0.019943019943019943,0.01282051282051282,0.018518518518518517,0.019943019943019943,0.021367521367521368,0.019943019943019943,0.0,0.0,0.0,0.021367521367521368,0.018518518518518517,0.019943019943019943,0.019943019943019943,0.022792022792022793,0.022792022792022793,0.021367521367521368,0.018518518518518517,0.022792022792022793,0.022792022792022793,0.022792022792022793,0.021367521367521368,0.021367521367521368,0.024216524216524215,0.024216524216524215,0.024216524216524215,0.021367521367521368,0.022792022792022793,0.019943019943019943,0.019943019943019943,0.022792022792022793,0.018518518518518517,0.022792022792022793,0.021367521367521368,0.014245014245014245,0.021367521367521368,0.019943019943019943,0.022792022792022793,0.022792022792022793
S14_D16 hbo,0.011444921316165951,0.02145922746781116,0.01430615164520744,0.020028612303290415,0.01859799713876967,0.02145922746781116,0.01859799713876967,0.02145922746781116,0.012875536480686695,0.02145922746781116,0.02145922746781116,0.022889842632331903,0.02145922746781116,0.02145922746781116,0.020028612303290415,0.012875536480686695,0.01859799713876967,0.020028612303290415,0.02145922746781116,0.020028612303290415,0.0,0.0,0.0,0.02145922746781116,0.01859799713876967,0.020028612303290415,0.020028612303290415,0.022889842632331903,0.022889842632331903,0.02145922746781116,0.01859799713876967,0.022889842632331903,0.022889842632331903,0.022889842632331903,0.02145922746781116,0.02145922746781116,0.022889842632331903,0.022889842632331903,0.022889842632331903,0.02145922746781116,0.022889842632331903,0.020028612303290415,0.020028612303290415,0.022889842632331903,0.01859799713876967,0.022889842632331903,0.02145922746781116,0.01430615164520744,0.02145922746781116,0.020028612303290415,0.022889842632331903,0.022889842632331903
S15_D13 hbo,0.01509433962264151,0.020754716981132074,0.018867924528301886,0.020754716981132074,0.020754716981132074,0.020754716981132074,0.020754716981132074,0.020754716981132074,0.016981132075471698,0.020754716981132074,0.020754716981132074,0.020754716981132074,0.020754716981132074,0.020754716981132074,0.020754716981132074,0.016981132075471698,0.020754716981132074,0.020754716981132074,0.020754716981132074,0.020754716981132074,0.0,0.0,0.0,0.020754716981132074,0.020754716981132074,0.020754716981132074,0.020754716981132074,0.020754716981132074,0.020754716981132074,0.020754716981132074,0.020754716981132074,0.020754716981132074,0.020754716981132074,0.020754716981132074,0.020754716981132074,0.020754716981132074,0.020754716981132074,0.020754716981132074,0.020754716981132074,0.020754716981132074,0.020754716981132074,0.020754716981132074,0.020754716981132074,0.020754716981132074,0.020754716981132074,0.020754716981132074,0.020754716981132074,0.018867924528301886,0.020754716981132074,0.020754716981132074,0.020754716981132074,0.020754716981132074
S15_D15 hbo,0.011444921316165951,0.02145922746781116,0.01430615164520744,0.020028612303290415,0.01859799713876967,0.02145922746781116,0.01859799713876967,0.02145922746781116,0.012875536480686695,0.02145922746781116,0.02145922746781116,0.022889842632331903,0.02145922746781116,0.02145922746781116,0.020028612303290415,0.012875536480686695,0.01859799713876967,0.020028612303290415,0.02145922746781116,0.020028612303290415,0.0,0.0,0.0,0.02145922746781116,0.01859799713876967,0.020028612303290415,0.020028612303290415,0.022889842632331903,0.022889842632331903,0.02145922746781116,0.01859799713876967,0.022889842632331903,0.022889842632331903,0.022889842632331903,0.02145922746781116,0.02145922746781116,0.022889842632331903,0.022889842632331903,0.022889842632331903,0.02145922746781116,0.022889842632331903,0.020028612303290415,0.020028612303290415,0.022889842632331903,0.01859799713876967,0.022889842632331903,0.02145922746781116,0.01430615164520744,0.02145922746781116,0.020028612303290415,0.022889842632331903,0.022889842632331903
S15_D16 hbo,0.01167883211678832,0.021897810218978103,0.014598540145985401,0.020437956204379562,0.01897810218978102,0.021897810218978103,0.01897810218978102,0.021897810218978103,0.013138686131386862,0.021897810218978103,0.021897810218978103,0.021897810218978103,0.021897810218978103,0.021897810218978103,0.020437956204379562,0.013138686131386862,0.01897810218978102,0.020437956204379562,0.021897810218978103,0.020437956204379562,0.0,0.0,0.0,0.021897810218978103,0.01897810218978102,0.020437956204379562,0.020437956204379562,0.021897810218978103,0.021897810218978103,0.021897810218978103,0.01897810218978102,0.021897810218978103,0.021897810218978103,0.021897810218978103,0.021897810218978103,0.021897810218978103,0.021897810218978103,0.021897810218978103,0.021897810218978103,0.021897810218978103,0.021897810218978103,0.020437956204379562,0.020437956204379562,0.021897810218978103,0.01897810218978102,0.021897810218978103,0.021897810218978103,0.014598540145985401,0.021897810218978103,0.020437956204379562,0.021897810218978103,0.021897810218978103
S16_D14 hbo,0.011396011396011397,0.021367521367521368,0.014245014245014245,0.019943019943019943,0.018518518518518517,0.021367521367521368,0.018518518518518517,0.021367521367521368,0.01282051282051282,0.021367521367521368,0.021367521367521368,0.022792022792022793,0.021367521367521368,0.021367521367521368,0.019943019943019943,0.01282051282051282,0.018518518518518517,0.019943019943019943,0.021367521367521368,0.019943019943019943,0.0,0.0,0.0,0.021367521367521368,0.018518518518518517,0.019943019943019943,0.019943019943019943,0.022792022792022793,0.022792022792022793,0.021367521367521368,0.018518518518518517,0.022792022792022793,0.022792022792022793,0.022792022792022793,0.021367521367521368,0.021367521367521368,0.024216524216524215,0.024216524216524215,0.024216524216524215,0.021367521367521368,0.022792022792022793,0.019943019943019943,0.019943019943019943,0.022792022792022793,0.018518518518518517,0.022792022792022793,0.021367521367521368,0.014245014245014245,0.021367521367521368,0.019943019943019943,0.022792022792022793,0.022792022792022793
S16_D16 hbo,0.011396011396011397,0.021367521367521368,0.014245014245014245,0.019943019943019943,0.018518518518518517,0.021367521367521368,0.018518518518518517,0.021367521367521368,0.01282051282051282,0.021367521367521368,0.021367521367521368,0.022792022792022793,0.021367521367521368,0.021367521367521368,0.019943019943019943,0.01282051282051282,0.018518518518518517,0.019943019943019943,0.021367521367521368,0.019943019943019943,0.0,0.0,0.0,0.021367521367521368,0.018518518518518517,0.019943019943019943,0.019943019943019943,0.022792022792022793,0.022792022792022793,0.021367521367521368,0.018518518518518517,0.022792022792022793,0.022792022792022793,0.022792022792022793,0.021367521367521368,0.021367521367521368,0.024216524216524215,0.024216524216524215,0.024216524216524215,0.021367521367521368,0.022792022792022793,0.019943019943019943,0.019943019943019943,0.022792022792022793,0.018518518518518517,0.022792022792022793,0.021367521367521368,0.014245014245014245,0.021367521367521368,0.019943019943019943,0.022792022792022793,0.022792022792022793
