,S1_D1 hbo,S1_D3 hbo,S2_D1 hbo,S2_D2 hbo,S2_D4 hbo,S3_D1 hbo,S3_D3 hbo,S3_D4 hbo,S3_D5 hbo,S4_D2 hbo,S4_D4 hbo,S4_D6 hbo,S4_D11 hbo,S5_D3 hbo,S5_D5 hbo,S5_D7 hbo,S6_D4 hbo,S6_D5 hbo,S6_D6 hbo,S6_D8 hbo,S7_D5 hbo,S7_D7 hbo,S7_D8 hbo,S8_D6 hbo,S8_D8 hbo,S8_D15 hbo,S9_D2 hbo,S9_D9 hbo,S9_D11 hbo,S10_D9 hbo,S10_D10 hbo,S10_D12 hbo,S11_D9 hbo,S11_D11 hbo,S11_D12 hbo,S11_D13 hbo,S12_D10 hbo,S12_D12 hbo,S12_D14 hbo,S13_D6 hbo,S13_D11 hbo,S13_D13 hbo,S13_D15 hbo,S14_D12 hbo,S14_D13 hbo,S14_D14 hbo,S14_D16 hbo,S15_D13 hbo,S15_D15 hbo,S15_D16 hbo,S16_D14 hbo,S16_D16 hbo
S1_D1 hbo,0.15294117647058825,0.12941176470588237,0.0,0.0,0.0,0.03529411764705882,0.1588235294117647,0.01764705882352941,0.1,0.0,0.0,0.0,0.0,0.029411764705882353,0.0,0.029411764705882353,0.08235294117647059,0.0,0.0,0.011764705882352941,0.0,0.01764705882352941,0.0,0.03529411764705882,0.023529411764705882,0.0,0.0,0.0,0.0,0.0,0.0,0.0,0.0,0.0,0.0,0.0,0.0,0.047058823529411764,0.0,0.01764705882352941,0.0,0.023529411764705882,0.041176470588235294,0.047058823529411764,0.0,0.0,0.0,0.0,0.0,0.0,0.0,0.0
S1_D3 hbo,0.06840390879478828,0.09446254071661238,0.0,0.016286644951140065,0.0,0.026058631921824105,0.07166123778501629,0.026058631921824105,0.08143322475570032,0.009771986970684038,0.016286644951140065,0.016286644951140065,0.016286644951140065,0.03257328990228013,0.016286644951140065,0.03257328990228013,0.05211726384364821,0.016286644951140065,0.016286644951140065,0.003257328990228013,0.0,0.0,0.0,0.016286644951140065,0.026058631921824105,0.0,0.0,0.016286644951140065,0.006514657980456026,0.0,0.0,0.006514657980456026,0.016286644951140065,0.016286644951140065,0.016286644951140065,0.003257328990228013,0.003257328990228013,0.026058631921824105,0.016286644951140065,0.006514657980456026,0.009771986970684038,0.009771986970684038,0.035830618892508145,0.03908794788273615,0.016286644951140065,0.035830618892508145,0.016286644951140065,0.016286644951140065,0.03257328990228013,0.0,0.0,0.0
S2_D1 hbo,0.0,0.0,0.08664259927797834,0.02888086642599278,0.0,0.02527075812274368,0.0,0.02888086642599278,0.02527075812274368,0.02888086642599278,0.02888086642599278,0.02888086642599278,0.02888086642599278,0.02888086642599278,0.02888086642599278,0.02888086642599278,0.0,0.02888086642599278,0.02888086642599278,0.02888086642599278,0.0,0.0,0.0,0.018050541516245487,0.02888086642599278,0.0,0.0,0.02888086642599278,0.02888086642599278,0.0,0.0,0.0,0.02888086642599278,0.02888086642599278,0.02888086642599278,0.010830324909747292,0.010830324909747292,0.02527075812274368,0.02527075812274368,0.010830324909747292,0.02888086642599278,0.021660649819494584,0.02888086642599278,0.02527075812274368,0.02888086642599278,0.02527075812274368,0.02527075812274368,0.02888086642599278,0.02888086642599278,0.0,0.0,0.0
S2_D2 hbo,0.0,0.009259259259259259,0.018518518518518517,0.041666666666666664,0.0,0.020833333333333332,0.0,0.034722222222222224,0.03009259259259259,0.032407407407407406,0.034722222222222224,0.034722222222222224,0.034722222222222224,0.034722222222222224,0.032407407407407406,0.034722222222222224,0.0,0.034722222222222224,0.03935185185185185,0.0,0.0,0.0,0.0,0.0,0.03009259259259259,0.0,0.0,0.034722222222222224,0.02546296296296296,0.0,0.0,0.004629629629629629,0.032407407407407406,0.037037037037037035,0.037037037037037035,0.013888888888888888,0.0023148148148148147,0.016203703703703703,0.027777777777777776,0.0,0.03009259259259259,0.016203703703703703,0.03935185185185185,0.027777777777777776,0.034722222222222224,0.027777777777777776,0.027777777777777776,0.034722222222222224,0.032407407407407406,0.0,0.0,0.0
S2_D4 hbo,0.0,0.0,0.0,0.0,0.3157894736842105,0.0,0.0,0.0,0.0,0.0,0.0,0.0,0.0,0.0,0.0,0.10526315789473684,0.0,0.0,0.05263157894736842,0.0,0.02631578947368421,0.02631578947368421,0.0,0.02631578947368421,0.0,0.02631578947368421,0.0,0.0,0.0,0.0,0.07894736842105263,0.0,0.0,0.0,0.0,0.15789473684210525,0.0,0.02631578947368421,0.0,0.02631578947368421,0.0,0.10526315789473684,0.0,0.0,0.0,0.0,0.0,0.0,0.0,0.0,0.0,0.02631578947368421
S3_D1 hbo,0.01694915254237288,0.02824858757062147,0.014124293785310734,0.02824858757062147,0.0,0.05367231638418079,0.01694915254237288,0.02824858757062147,0.0423728813559322,0.025423728813559324,0.02824858757062147,0.02824858757062147,0.02824858757062147,0.02824858757062147,0.02824858757062147,0.02824858757062147,0.01694915254237288,0.02824858757062147,0.02824858757062147,0.002824858757062147,0.0,0.005649717514124294,0.0,0.0,0.03954802259887006,0.0,0.0,0.02824858757062147,0.022598870056497175,0.0,0.0,0.005649717514124294,0.02824858757062147,0.02824858757062147,0.02824858757062147,0.00847457627118644,0.01694915254237288,0.01694915254237288,0.025423728813559324,0.005649717514124294,0.025423728813559324,0.025423728813559324,0.02824858757062147,0.025423728813559324,0.02824858757062147,0.025423728813559324,0.025423728813559324,0.02824858757062147,0.02824858757062147,0.0,0.0,0.0
S3_D3 hbo,0.16292134831460675,0.12359550561797752,0.0,0.0,0.0,0.033707865168539325,0.16853932584269662,0.016853932584269662,0.09550561797752809,0.0,0.0,0.0,0.0,0.028089887640449437,0.0,0.028089887640449437,0.0898876404494382,0.0,0.0,0.016853932584269662,0.0,0.02247191011235955,0.0,0.028089887640449437,0.02247191011235955,0.0,0.0,0.0,0.0,0.0,0.0,0.0,0.0,0.0,0.0,0.0,0.0,0.0449438202247191,0.0,0.016853932584269662,0.0,0.02247191011235955,0.033707865168539325,0.0449438202247191,0.0,0.0,0.0,0.0,0.0,0.0,0.0,0.0
S3_D4 hbo,0.00641025641025641,0.017094017094017096,0.014957264957264958,0.03632478632478633,0.0,0.021367521367521368,0.00641025641025641,0.03632478632478633,0.03418803418803419,0.027777777777777776,0.03205128205128205,0.03205128205128205,0.03205128205128205,0.038461538461538464,0.029914529914529916,0.038461538461538464,0.002136752136752137,0.03205128205128205,0.03632478632478633,0.0,0.0,0.0,0.0,0.004273504273504274,0.027777777777777776,0.0,0.0,0.03205128205128205,0.023504273504273504,0.0,0.0,0.004273504273504274,0.029914529914529916,0.03418803418803419,0.03418803418803419,0.01282051282051282,0.004273504273504274,0.023504273504273504,0.027777777777777776,0.0,0.027777777777777776,0.014957264957264958,0.042735042735042736,0.03205128205128205,0.03205128205128205,0.027777777777777776,0.027777777777777776,0.03205128205128205,0.029914529914529916,0.0,0.0,0.0
S3_D5 hbo,0.027586206896551724,0.04310344827586207,0.01206896551724138,0.02586206896551724,0.0,0.027586206896551724,0.029310344827586206,0.03103448275862069,0.056896551724137934,0.01896551724137931,0.02413793103448276,0.02413793103448276,0.02413793103448276,0.03620689655172414,0.02586206896551724,0.03620689655172414,0.02413793103448276,0.02586206896551724,0.02586206896551724,0.0034482758620689655,0.0,0.0,0.0,0.006896551724137931,0.029310344827586206,0.0,0.0,0.02586206896551724,0.020689655172413793,0.0,0.0,0.0034482758620689655,0.02586206896551724,0.02586206896551724,0.02586206896551724,0.006896551724137931,0.005172413793103448,0.02413793103448276,0.02413793103448276,0.005172413793103448,0.022413793103448276,0.017241379310344827,0.034482758620689655,0.034482758620689655,0.02586206896551724,0.032758620689655175,0.02413793103448276,0.02586206896551724,0.03103448275862069,0.0,0.0,0.0
S4_D2 hbo,0.0,0.005479452054794521,0.021917808219178082,0.038356164383561646,0.0,0.019178082191780823,0.0,0.03561643835616438,0.030136986301369864,0.03561643835616438,0.03561643835616438,0.03561643835616438,0.03561643835616438,0.03287671232876712,0.03287671232876712,0.030136986301369864,0.0,0.03561643835616438,0.038356164383561646,0.0,0.0,0.0,0.0,0.0,0.030136986301369864,0.0,0.0,0.03561643835616438,0.024657534246575342,0.0,0.0,0.0,0.03287671232876712,0.038356164383561646,0.038356164383561646,0.01643835616438356,0.0,0.019178082191780823,0.0273972602739726,0.0,0.030136986301369864,0.019178082191780823,0.038356164383561646,0.0273972602739726,0.03561643835616438,0.0273972602739726,0.0273972602739726,0.03561643835616438,0.03287671232876712,0.0,0.0,0.0
S4_D4 hbo,0.0,0.009852216748768473,0.017241379310344827,0.03940886699507389,0.0,0.022167487684729065,0.0,0.034482758620689655,0.029556650246305417,0.03201970443349754,0.034482758620689655,0.034482758620689655,0.034482758620689655,0.034482758620689655,0.03201970443349754,0.034482758620689655,0.0,0.034482758620689655,0.03940886699507389,0.0,0.0,0.0,0.0,0.0,0.029556650246305417,0.0,0.0,0.034482758620689655,0.024630541871921183,0.0,0.0,0.0049261083743842365,0.03201970443349754,0.03694581280788178,0.03694581280788178,0.014778325123152709,0.0024630541871921183,0.017241379310344827,0.029556650246305417,0.0,0.029556650246305417,0.017241379310344827,0.03940886699507389,0.027093596059113302,0.034482758620689655,0.029556650246305417,0.029556650246305417,0.034482758620689655,0.03201970443349754,0.0,0.0,0.0
S4_D6 hbo,0.0,0.009302325581395349,0.018604651162790697,0.03953488372093023,0.0,0.020930232558139535,0.0,0.03488372093023256,0.030232558139534883,0.03255813953488372,0.03488372093023256,0.03488372093023256,0.03488372093023256,0.03488372093023256,0.03255813953488372,0.03255813953488372,0.0,0.03488372093023256,0.03953488372093023,0.0,0.0,0.0,0.0,0.0,0.030232558139534883,0.0,0.0,0.03488372093023256,0.02558139534883721,0.0,0.0,0.004651162790697674,0.03255813953488372,0.037209302325581395,0.037209302325581395,0.013953488372093023,0.002325581395348837,0.01627906976744186,0.027906976744186046,0.0,0.030232558139534883,0.01627906976744186,0.03953488372093023,0.027906976744186046,0.03488372093023256,0.027906976744186046,0.027906976744186046,0.03488372093023256,0.03255813953488372,0.0,0.0,0.0
S4_D11 hbo,0.0,0.009302325581395349,0.018604651162790697,0.03953488372093023,0.0,0.020930232558139535,0.0,0.03488372093023256,0.030232558139534883,0.03255813953488372,0.03488372093023256,0.03488372093023256,0.03488372093023256,0.03488372093023256,0.03255813953488372,0.03255813953488372,0.0,0.03488372093023256,0.03953488372093023,0.0,0.0,0.0,0.0,0.0,0.030232558139534883,0.0,0.0,0.03488372093023256,0.02558139534883721,0.0,0.0,0.004651162790697674,0.03255813953488372,0.037209302325581395,0.037209302325581395,0.013953488372093023,0.002325581395348837,0.01627906976744186,0.027906976744186046,0.0,0.030232558139534883,0.01627906976744186,0.03953488372093023,0.027906976744186046,0.03488372093023256,0.027906976744186046,0.027906976744186046,0.03488372093023256,0.03255813953488372,0.0,0.0,0.0
S5_D3 hbo,0.010438413361169102,0.020876826722338204,0.014613778705636743,0.03549060542797495,0.0,0.020876826722338204,0.010438413361169102,0.037578288100208766,0.037578288100208766,0.025052192066805846,0.031315240083507306,0.031315240083507306,0.031315240083507306,0.03966597077244259,0.029227557411273485,0.04175365344467641,0.0020876826722338203,0.031315240083507306,0.033402922755741124,0.0,0.0,0.0,0.0,0.006263048016701462,0.027139874739039668,0.0,0.0,0.031315240083507306,0.022964509394572025,0.0,0.0,0.0041753653444676405,0.029227557411273485,0.031315240083507306,0.031315240083507306,0.010438413361169102,0.0041753653444676405,0.025052192066805846,0.027139874739039668,0.0,0.027139874739039668,0.014613778705636743,0.04175365344467641,0.03549060542797495,0.031315240083507306,0.027139874739039668,0.027139874739039668,0.031315240083507306,0.029227557411273485,0.0,0.0,0.0
S5_D5 hbo,0.0,0.010548523206751054,0.016877637130801686,0.035864978902953586,0.0,0.02109704641350211,0.0,0.035864978902953586,0.03164556962025317,0.027426160337552744,0.03375527426160337,0.03375527426160337,0.03375527426160337,0.035864978902953586,0.03375527426160337,0.03375527426160337,0.004219409282700422,0.035864978902953586,0.035864978902953586,0.0,0.0,0.0,0.0,0.0,0.029535864978902954,0.0,0.0,0.035864978902953586,0.027426160337552744,0.0,0.0,0.004219409282700422,0.03375527426160337,0.035864978902953586,0.035864978902953586,0.010548523206751054,0.006329113924050633,0.016877637130801686,0.029535864978902954,0.0,0.03164556962025317,0.014767932489451477,0.035864978902953586,0.029535864978902954,0.035864978902953586,0.029535864978902954,0.029535864978902954,0.035864978902953586,0.03164556962025317,0.0,0.0,0.0
S5_D7 hbo,0.010330578512396695,0.02066115702479339,0.012396694214876033,0.03305785123966942,0.004132231404958678,0.02066115702479339,0.010330578512396695,0.03512396694214876,0.03512396694214876,0.022727272727272728,0.028925619834710745,0.028925619834710745,0.028925619834710745,0.0371900826446281,0.026859504132231406,0.0640495867768595,0.002066115702479339,0.028925619834710745,0.04132231404958678,0.0,0.0,0.0,0.0,0.006198347107438017,0.024793388429752067,0.0,0.0,0.028925619834710745,0.02066115702479339,0.0,0.010330578512396695,0.004132231404958678,0.026859504132231406,0.028925619834710745,0.028925619834710745,0.01859504132231405,0.004132231404958678,0.030991735537190084,0.024793388429752067,0.0,0.024793388429752067,0.01859504132231405,0.03925619834710744,0.03305785123966942,0.028925619834710745,0.024793388429752067,0.024793388429752067,0.028925619834710745,0.026859504132231406,0.0,0.0,0.0
S6_D4 hbo,0.06965174129353234,0.0945273631840796,0.0,0.009950248756218905,0.0,0.03980099502487562,0.07960199004975124,0.009950248756218905,0.07960199004975124,0.0,0.009950248756218905,0.009950248756218905,0.009950248756218905,0.009950248756218905,0.009950248756218905,0.009950248756218905,0.12437810945273632,0.009950248756218905,0.009950248756218905,0.009950248756218905,0.0,0.0,0.0,0.0,0.04975124378109453,0.0,0.0,0.009950248756218905,0.029850746268656716,0.009950248756218905,0.0,0.004975124378109453,0.009950248756218905,0.009950248756218905,0.009950248756218905,0.014925373134328358,0.01990049751243781,0.004975124378109453,0.009950248756218905,0.014925373134328358,0.029850746268656716,0.04477611940298507,0.009950248756218905,0.009950248756218905,0.009950248756218905,0.03980099502487562,0.009950248756218905,0.009950248756218905,0.03980099502487562,0.0,0.0,0.0
S6_D5 hbo,0.0,0.010395010395010396,0.016632016632016633,0.037422037422037424,0.0,0.02079002079002079,0.0,0.035343035343035345,0.031185031185031187,0.029106029106029108,0.033264033264033266,0.033264033264033266,0.033264033264033266,0.035343035343035345,0.033264033264033266,0.033264033264033266,0.004158004158004158,0.035343035343035345,0.037422037422037424,0.0,0.0,0.0,0.0,0.0,0.029106029106029108,0.0,0.0,0.035343035343035345,0.02702702702702703,0.0,0.0,0.004158004158004158,0.033264033264033266,0.037422037422037424,0.037422037422037424,0.012474012474012475,0.006237006237006237,0.016632016632016633,0.029106029106029108,0.0,0.031185031185031187,0.014553014553014554,0.037422037422037424,0.029106029106029108,0.035343035343035345,0.029106029106029108,0.029106029106029108,0.035343035343035345,0.031185031185031187,0.0,0.0,0.0
S6_D6 hbo,0.0,0.008948545861297539,0.017897091722595078,0.040268456375838924,0.0,0.020134228187919462,0.0,0.03355704697986577,0.029082774049217,0.03131991051454139,0.03355704697986577,0.03355704697986577,0.03355704697986577,0.03355704697986577,0.03131991051454139,0.042505592841163314,0.0,0.03355704697986577,0.0447427293064877,0.0,0.0,0.0,0.0,0.0,0.029082774049217,0.0,0.0,0.03355704697986577,0.024608501118568233,0.0,0.006711409395973154,0.0044742729306487695,0.03131991051454139,0.035794183445190156,0.035794183445190156,0.017897091722595078,0.0022371364653243847,0.02237136465324385,0.026845637583892617,0.0,0.029082774049217,0.015659955257270694,0.03803131991051454,0.026845637583892617,0.03355704697986577,0.026845637583892617,0.026845637583892617,0.03355704697986577,0.03131991051454139,0.0,0.0,0.0
S6_D8 hbo,0.03305785123966942,0.01652892561983471,0.06611570247933884,0.0,0.0,0.024793388429752067,0.04132231404958678,0.0,0.01652892561983471,0.0,0.0,0.0,0.0,0.0,0.0,0.0,0.03305785123966942,0.0,0.0,0.2231404958677686,0.0,0.049586776859504134,0.024793388429752067,0.01652892561983471,0.03305785123966942,0.0,0.0,0.024793388429752067,0.04132231404958678,0.0,0.008264462809917356,0.05785123966942149,0.024793388429752067,0.0,0.0,0.0,0.04132231404958678,0.0,0.0,0.12396694214876033,0.008264462809917356,0.03305785123966942,0.0,0.024793388429752067,0.0,0.0,0.0,0.0,0.0,0.01652892561983471,0.0,0.01652892561983471
S7_D5 hbo,0.0,0.0,0.0,0.0,0.009708737864077669,0.0,0.0,0.0,0.0,0.0,0.0,0.0,0.0,0.0,0.0,0.0,0.0,0.0,0.0,0.0,0.24271844660194175,0.14563106796116504,0.0,0.05825242718446602,0.0,0.14563106796116504,0.07766990291262135,0.0,0.0,0.0,0.0,0.0,0.0,0.0,0.0,0.0,0.0,0.0,0.0,0.06796116504854369,0.0,0.0,0.0,0.0,0.0,0.0,0.0,0.0,0.0,0.0,0.05825242718446602,0.1941747572815534
S7_D7 hbo,0.022058823529411766,0.0,0.0,0.0,0.0,0.014705882352941176,0.029411764705882353,0.0,0.0,0.0,0.0,0.0,0.0,0.0,0.0,0.0,0.0,0.0,0.0,0.029411764705882353,0.11029411764705882,0.25735294117647056,0.0,0.029411764705882353,0.0,0.11029411764705882,0.007352941176470588,0.0,0.0,0.0,0.04411764705882353,0.0,0.0,0.0,0.0,0.0,0.007352941176470588,0.0,0.0,0.04411764705882353,0.0,0.0,0.0,0.0,0.0,0.0,0.0,0.0,0.0,0.0,0.13970588235294118,0.15441176470588236
S7_D8 hbo,0.0,0.0,0.0,0.0,0.0,0.0,0.0,0.0,0.0,0.0,0.0,0.0,0.0,0.0,0.0,0.0,0.0,0.0,0.0,0.02857142857142857,0.0,0.0,0.6285714285714286,0.0,0.0,0.0,0.0,0.0,0.0,0.0,0.14285714285714285,0.0,0.0,0.0,0.0,0.0,0.0,0.05714285714285714,0.0,0.0,0.0,0.0,0.14285714285714285,0.0,0.0,0.0,0.0,0.0,0.0,0.0,0.0,0.0
S8_D6 hbo,0.04597701149425287,0.034482758620689655,0.05747126436781609,0.0,0.011494252873563218,0.0,0.034482758620689655,0.0,0.022988505747126436,0.0,0.0,0.0,0.0,0.011494252873563218,0.0,0.011494252873563218,0.0,0.0,0.0,0.04597701149425287,0.08045977011494253,0.06896551724137931,0.0,0.19540229885057472,0.0,0.08045977011494253,0.0,0.0,0.0,0.0,0.0,0.0,0.0,0.0,0.0,0.0,0.0,0.011494252873563218,0.0,0.11494252873563218,0.0,0.0,0.06896551724137931,0.022988505747126436,0.0,0.0,0.0,0.0,0.0,0.0,0.0,0.08045977011494253
S8_D8 hbo,0.008849557522123894,0.017699115044247787,0.015486725663716814,0.030973451327433628,0.0,0.028761061946902654,0.008849557522123894,0.030973451327433628,0.035398230088495575,0.02654867256637168,0.030973451327433628,0.030973451327433628,0.030973451327433628,0.028761061946902654,0.028761061946902654,0.028761061946902654,0.017699115044247787,0.030973451327433628,0.030973451327433628,0.0,0.0,0.0,0.0,0.0,0.0420353982300885,0.0,0.0,0.030973451327433628,0.030973451327433628,0.004424778761061947,0.0,0.004424778761061947,0.028761061946902654,0.030973451327433628,0.030973451327433628,0.017699115044247787,0.00663716814159292,0.015486725663716814,0.02654867256637168,0.0022123893805309734,0.035398230088495575,0.030973451327433628,0.030973451327433628,0.024336283185840708,0.030973451327433628,0.02654867256637168,0.02654867256637168,0.030973451327433628,0.028761061946902654,0.0,0.0,0.0
S8_D15 hbo,0.0,0.0,0.0,0.0,0.0,0.0,0.0,0.0,0.0,0.0,0.0,0.0,0.0,0.0,0.0,0.0,0.0,0.0,0.0,0.0,0.10784313725490197,0.12745098039215685,0.0,0.049019607843137254,0.0,0.23529411764705882,0.049019607843137254,0.0,0.0,0.00980392156862745,0.049019607843137254,0.0,0.0,0.0,0.0,0.0,0.0,0.0,0.0,0.08823529411764706,0.0,0.0,0.0,0.0,0.0,0.0,0.0,0.0,0.0,0.0,0.09803921568627451,0.18627450980392157
S9_D2 hbo,0.0,0.0,0.0,0.0,0.0,0.0,0.0,0.0,0.0,0.0,0.0,0.0,0.0,0.0,0.0,0.0,0.0,0.0,0.0,0.0,0.225,0.025,0.0,0.0,0.0,0.15,0.475,0.0,0.0,0.0,0.0,0.0,0.0,0.0,0.0,0.0,0.0,0.0,0.0,0.0,0.0,0.0,0.0,0.0,0.0,0.0,0.0,0.0,0.0,0.0,0.0,0.125
S9_D9 hbo,0.0,0.010438413361169102,0.014613778705636743,0.03549060542797495,0.0,0.020876826722338204,0.0,0.031315240083507306,0.027139874739039668,0.027139874739039668,0.031315240083507306,0.031315240083507306,0.031315240083507306,0.031315240083507306,0.029227557411273485,0.031315240083507306,0.0020876826722338203,0.031315240083507306,0.03549060542797495,0.006263048016701462,0.0,0.0,0.0,0.0,0.027139874739039668,0.0,0.0,0.04384133611691023,0.037578288100208766,0.0,0.0,0.018789144050104383,0.03966597077244259,0.033402922755741124,0.033402922755741124,0.012526096033402923,0.0041753653444676405,0.016701461377870562,0.027139874739039668,0.0041753653444676405,0.027139874739039668,0.014613778705636743,0.03549060542797495,0.03966597077244259,0.031315240083507306,0.027139874739039668,0.027139874739039668,0.031315240083507306,0.029227557411273485,0.010438413361169102,0.0,0.0
S9_D11 hbo,0.0,0.008908685968819599,0.015590200445434299,0.028953229398663696,0.0,0.022271714922048998,0.0,0.028953229398663696,0.024498886414253896,0.024498886414253896,0.028953229398663696,0.028953229398663696,0.028953229398663696,0.026726057906458798,0.026726057906458798,0.026726057906458798,0.013363028953229399,0.028953229398663696,0.028953229398663696,0.0066815144766146995,0.0,0.0,0.0,0.0,0.0378619153674833,0.0,0.0,0.0400890868596882,0.04899777282850779,0.004454342984409799,0.0,0.0200445434298441,0.035634743875278395,0.028953229398663696,0.028953229398663696,0.015590200445434299,0.011135857461024499,0.017817371937639197,0.024498886414253896,0.004454342984409799,0.0378619153674833,0.028953229398663696,0.028953229398663696,0.0378619153674833,0.028953229398663696,0.024498886414253896,0.024498886414253896,0.028953229398663696,0.028953229398663696,0.013363028953229399,0.0,0.0
S10_D9 hbo,0.0,0.0,0.0,0.0,0.0,0.0,0.0,0.0,0.0,0.0,0.0,0.0,0.0,0.0,0.0,0.0,0.0,0.0,0.0,0.0,0.0,0.0,0.0,0.0,0.0,0.0,0.0,0.0,0.0,0.7916666666666666,0.0,0.0,0.0,0.0,0.0,0.041666666666666664,0.0,0.0,0.0,0.0,0.0,0.08333333333333333,0.0,0.0,0.0,0.0,0.0,0.0,0.0,0.0,0.041666666666666664,0.041666666666666664
S10_D10 hbo,0.0,0.0,0.0,0.0,0.014925373134328358,0.0,0.0,0.0,0.0,0.0,0.0,0.0,0.0,0.0,0.0,0.04477611940298507,0.0,0.0,0.04477611940298507,0.0,0.0,0.05970149253731343,0.04477611940298507,0.0,0.0,0.07462686567164178,0.0,0.0,0.0,0.0,0.4925373134328358,0.0,0.0,0.0,0.0,0.04477611940298507,0.0,0.08955223880597014,0.0,0.0,0.0,0.014925373134328358,0.0,0.0,0.0,0.0,0.0,0.0,0.0,0.0,0.07462686567164178,0.0
S10_D12 hbo,0.0,0.015748031496062992,0.0,0.015748031496062992,0.0,0.015748031496062992,0.0,0.015748031496062992,0.015748031496062992,0.015748031496062992,0.015748031496062992,0.015748031496062992,0.015748031496062992,0.015748031496062992,0.015748031496062992,0.015748031496062992,0.0,0.015748031496062992,0.015748031496062992,0.07086614173228346,0.0,0.0,0.0,0.0,0.015748031496062992,0.0,0.0,0.07086614173228346,0.06299212598425197,0.0,0.0,0.11811023622047244,0.06299212598425197,0.015748031496062992,0.015748031496062992,0.0,0.0,0.0,0.015748031496062992,0.06299212598425197,0.015748031496062992,0.0,0.015748031496062992,0.07874015748031496,0.015748031496062992,0.015748031496062992,0.015748031496062992,0.015748031496062992,0.015748031496062992,0.05511811023622047,0.0,0.023622047244094488
S11_D9 hbo,0.0,0.010548523206751054,0.014767932489451477,0.03375527426160337,0.0,0.02109704641350211,0.0,0.03164556962025317,0.027426160337552744,0.02531645569620253,0.03164556962025317,0.03164556962025317,0.03164556962025317,0.03164556962025317,0.029535864978902954,0.03164556962025317,0.002109704641350211,0.03164556962025317,0.03375527426160337,0.006329113924050633,0.0,0.0,0.0,0.0,0.027426160337552744,0.0,0.0,0.04430379746835443,0.035864978902953586,0.0,0.0,0.016877637130801686,0.04430379746835443,0.03164556962025317,0.035864978902953586,0.010548523206751054,0.004219409282700422,0.016877637130801686,0.027426160337552744,0.004219409282700422,0.027426160337552744,0.014767932489451477,0.03375527426160337,0.0379746835443038,0.035864978902953586,0.027426160337552744,0.027426160337552744,0.03164556962025317,0.029535864978902954,0.008438818565400843,0.0,0.0
S11_D11 hbo,0.0,0.010845986984815618,0.01735357917570499,0.039045553145336226,0.0,0.021691973969631236,0.0,0.03470715835140998,0.03036876355748373,0.03036876355748373,0.03470715835140998,0.03470715835140998,0.03470715835140998,0.03470715835140998,0.03253796095444685,0.03253796095444685,0.0021691973969631237,0.03470715835140998,0.039045553145336226,0.0,0.0,0.0,0.0,0.0,0.03036876355748373,0.0,0.0,0.03470715835140998,0.026030368763557483,0.0,0.0,0.004338394793926247,0.03253796095444685,0.0368763557483731,0.0368763557483731,0.013015184381778741,0.004338394793926247,0.01735357917570499,0.028199566160520606,0.0,0.03036876355748373,0.015184381778741865,0.039045553145336226,0.028199566160520606,0.03470715835140998,0.028199566160520606,0.028199566160520606,0.03470715835140998,0.03253796095444685,0.0,0.0,0.0
S11_D12 hbo,0.0,0.010775862068965518,0.017241379310344827,0.03879310344827586,0.0,0.021551724137931036,0.0,0.034482758620689655,0.03017241379310345,0.03017241379310345,0.034482758620689655,0.034482758620689655,0.034482758620689655,0.034482758620689655,0.032327586206896554,0.032327586206896554,0.0021551724137931034,0.034482758620689655,0.03879310344827586,0.0,0.0,0.0,0.0,0.0,0.03017241379310345,0.0,0.0,0.034482758620689655,0.02586206896551724,0.0,0.0,0.004310344827586207,0.034482758620689655,0.036637931034482756,0.03879310344827586,0.01293103448275862,0.004310344827586207,0.017241379310344827,0.028017241379310345,0.0,0.03017241379310345,0.015086206896551725,0.03879310344827586,0.028017241379310345,0.036637931034482756,0.028017241379310345,0.028017241379310345,0.034482758620689655,0.032327586206896554,0.0,0.0,0.0
S11_D13 hbo,0.0,0.0,0.014814814814814815,0.037037037037037035,0.044444444444444446,0.007407407407407408,0.0,0.022222222222222223,0.007407407407407408,0.02962962962962963,0.022222222222222223,0.022222222222222223,0.022222222222222223,0.022222222222222223,0.014814814814814815,0.05925925925925926,0.007407407407407408,0.022222222222222223,0.05925925925925926,0.0,0.0,0.0,0.0,0.0,0.022222222222222223,0.0,0.0,0.022222222222222223,0.022222222222222223,0.014814814814814815,0.037037037037037035,0.0,0.014814814814814815,0.02962962962962963,0.02962962962962963,0.1037037037037037,0.0,0.037037037037037035,0.007407407407407408,0.0,0.02962962962962963,0.08888888888888889,0.037037037037037035,0.007407407407407408,0.022222222222222223,0.007407407407407408,0.007407407407407408,0.022222222222222223,0.022222222222222223,0.0,0.0,0.0
S12_D10 hbo,0.0,0.018072289156626505,0.006024096385542169,0.018072289156626505,0.0,0.060240963855421686,0.0,0.024096385542168676,0.030120481927710843,0.006024096385542169,0.018072289156626505,0.018072289156626505,0.018072289156626505,0.024096385542168676,0.030120481927710843,0.024096385542168676,0.03614457831325301,0.030120481927710843,0.018072289156626505,0.018072289156626505,0.0,0.012048192771084338,0.0,0.0,0.04216867469879518,0.0,0.0,0.024096385542168676,0.05421686746987952,0.0,0.0,0.012048192771084338,0.024096385542168676,0.024096385542168676,0.024096385542168676,0.006024096385542169,0.0963855421686747,0.006024096385542169,0.030120481927710843,0.0,0.04216867469879518,0.030120481927710843,0.018072289156626505,0.024096385542168676,0.030120481927710843,0.030120481927710843,0.030120481927710843,0.024096385542168676,0.018072289156626505,0.0,0.0,0.0
S12_D12 hbo,0.02821316614420063,0.03134796238244514,0.01567398119122257,0.025078369905956112,0.0,0.018808777429467086,0.02821316614420063,0.034482758620689655,0.0438871473354232,0.0219435736677116,0.025078369905956112,0.025078369905956112,0.025078369905956112,0.03761755485893417,0.0219435736677116,0.04075235109717868,0.0,0.025078369905956112,0.02821316614420063,0.0,0.0,0.0,0.003134796238244514,0.009404388714733543,0.0219435736677116,0.0,0.0,0.025078369905956112,0.0219435736677116,0.0,0.018808777429467086,0.003134796238244514,0.0219435736677116,0.025078369905956112,0.025078369905956112,0.01567398119122257,0.003134796238244514,0.06896551724137931,0.018808777429467086,0.0,0.025078369905956112,0.0219435736677116,0.03761755485893417,0.0438871473354232,0.025078369905956112,0.018808777429467086,0.018808777429467086,0.025078369905956112,0.025078369905956112,0.0,0.0,0.0
S12_D14 hbo,0.0,0.012376237623762377,0.01485148514851485,0.034653465346534656,0.0,0.024752475247524754,0.0,0.034653465346534656,0.03217821782178218,0.024752475247524754,0.03217821782178218,0.03217821782178218,0.03217821782178218,0.03712871287128713,0.034653465346534656,0.03712871287128713,0.0049504950495049506,0.034653465346534656,0.034653465346534656,0.0,0.0,0.0,0.0,0.0,0.0297029702970297,0.0,0.0,0.034653465346534656,0.027227722772277228,0.0,0.0,0.0049504950495049506,0.034653465346534656,0.034653465346534656,0.034653465346534656,0.009900990099009901,0.007425742574257425,0.019801980198019802,0.03217821782178218,0.0,0.0297029702970297,0.01485148514851485,0.034653465346534656,0.0297029702970297,0.034653465346534656,0.03217821782178218,0.03217821782178218,0.034653465346534656,0.0297029702970297,0.0,0.0,0.0
S13_D6 hbo,0.0234375,0.0234375,0.03125,0.0,0.0,0.0234375,0.0234375,0.0,0.0234375,0.0,0.0,0.0,0.0,0.0,0.0,0.0,0.0234375,0.0,0.0,0.109375,0.046875,0.0546875,0.0,0.046875,0.0234375,0.0703125,0.0,0.015625,0.015625,0.0,0.0,0.0546875,0.015625,0.0,0.0,0.0,0.0,0.0,0.0,0.2109375,0.0,0.0234375,0.0,0.015625,0.0,0.0,0.0,0.0,0.0,0.015625,0.015625,0.09375
S13_D11 hbo,0.0,0.010964912280701754,0.017543859649122806,0.03508771929824561,0.0,0.021929824561403508,0.0,0.03289473684210526,0.02850877192982456,0.03070175438596491,0.03289473684210526,0.03289473684210526,0.03289473684210526,0.03070175438596491,0.03070175438596491,0.02850877192982456,0.008771929824561403,0.03289473684210526,0.03508771929824561,0.0,0.0,0.0,0.0,0.0,0.03728070175438596,0.0,0.0,0.03289473684210526,0.03289473684210526,0.0043859649122807015,0.0,0.0043859649122807015,0.03070175438596491,0.03508771929824561,0.03508771929824561,0.017543859649122806,0.006578947368421052,0.017543859649122806,0.02631578947368421,0.0,0.03728070175438596,0.02412280701754386,0.03508771929824561,0.02850877192982456,0.03289473684210526,0.02631578947368421,0.02631578947368421,0.03289473684210526,0.03289473684210526,0.0,0.0,0.0
S13_D13 hbo,0.014760147601476014,0.014760147601476014,0.014760147601476014,0.025830258302583026,0.01845018450184502,0.02952029520295203,0.014760147601476014,0.02214022140221402,0.02952029520295203,0.025830258302583026,0.02214022140221402,0.02214022140221402,0.02214022140221402,0.01845018450184502,0.01845018450184502,0.033210332103321034,0.033210332103321034,0.02214022140221402,0.033210332103321034,0.007380073800738007,0.0,0.0,0.0,0.0,0.05166051660516605,0.0,0.0,0.02214022140221402,0.03690036900369004,0.007380073800738007,0.01107011070110701,0.0,0.01845018450184502,0.025830258302583026,0.025830258302583026,0.05166051660516605,0.01107011070110701,0.02214022140221402,0.014760147601476014,0.007380073800738007,0.03690036900369004,0.07749077490774908,0.025830258302583026,0.014760147601476014,0.02214022140221402,0.014760147601476014,0.014760147601476014,0.02214022140221402,0.02214022140221402,0.0,0.0,0.0
S13_D15 hbo,0.010775862068965518,0.017241379310344827,0.01939655172413793,0.036637931034482756,0.0,0.01939655172413793,0.008620689655172414,0.032327586206896554,0.032327586206896554,0.028017241379310345,0.03017241379310345,0.03017241379310345,0.03017241379310345,0.034482758620689655,0.028017241379310345,0.036637931034482756,0.0,0.03017241379310345,0.034482758620689655,0.004310344827586207,0.0,0.0,0.010775862068965518,0.017241379310344827,0.02586206896551724,0.0,0.0,0.03017241379310345,0.021551724137931036,0.0,0.0,0.004310344827586207,0.028017241379310345,0.032327586206896554,0.032327586206896554,0.01293103448275862,0.0021551724137931034,0.01939655172413793,0.02586206896551724,0.004310344827586207,0.02586206896551724,0.015086206896551725,0.05818965517241379,0.03017241379310345,0.03017241379310345,0.02586206896551724,0.02586206896551724,0.03017241379310345,0.028017241379310345,0.0,0.0,0.0
S14_D12 hbo,0.015473887814313346,0.025145067698259187,0.013539651837524178,0.027079303675048357,0.0,0.019342359767891684,0.015473887814313346,0.03288201160541586,0.03868471953578337,0.02127659574468085,0.027079303675048357,0.027079303675048357,0.027079303675048357,0.0367504835589942,0.027079303675048357,0.0367504835589942,0.0019342359767891683,0.027079303675048357,0.027079303675048357,0.005802707930367505,0.0,0.0,0.0,0.007736943907156673,0.025145067698259187,0.0,0.0,0.03868471953578337,0.03481624758220503,0.0,0.0,0.019342359767891684,0.0367504835589942,0.027079303675048357,0.027079303675048357,0.007736943907156673,0.0038684719535783366,0.027079303675048357,0.025145067698259187,0.0038684719535783366,0.02321083172147002,0.01160541586073501,0.0367504835589942,0.05029013539651837,0.027079303675048357,0.025145067698259187,0.025145067698259187,0.027079303675048357,0.025145067698259187,0.01160541586073501,0.0,0.0
S14_D13 hbo,0.0,0.010330578512396695,0.01652892561983471,0.0371900826446281,0.0,0.02066115702479339,0.0,0.03512396694214876,0.030991735537190084,0.028925619834710745,0.03305785123966942,0.03305785123966942,0.03305785123966942,0.03512396694214876,0.03305785123966942,0.03305785123966942,0.004132231404958678,0.03512396694214876,0.0371900826446281,0.0,0.0,0.0,0.0,0.0,0.028925619834710745,0.0,0.0,0.03512396694214876,0.026859504132231406,0.0,0.0,0.004132231404958678,0.03512396694214876,0.0371900826446281,0.03925619834710744,0.012396694214876033,0.006198347107438017,0.01652892561983471,0.028925619834710745,0.0,0.030991735537190084,0.014462809917355372,0.0371900826446281,0.028925619834710745,0.0371900826446281,0.028925619834710745,0.028925619834710745,0.03512396694214876,0.030991735537190084,0.0,0.0,0.0
S14_D14 hbo,0.0,0.022935779816513763,0.013761467889908258,0.03211009174311927,0.0,0.022935779816513763,0.0,0.03211009174311927,0.04128440366972477,0.022935779816513763,0.02981651376146789,0.02981651376146789,0.02981651376146789,0.034403669724770644,0.03211009174311927,0.034403669724770644,0.016055045871559634,0.03211009174311927,0.03211009174311927,0.0,0.0,0.0,0.0,0.0,0.027522935779816515,0.0,0.0,0.03211009174311927,0.02522935779816514,0.0,0.0,0.0045871559633027525,0.03211009174311927,0.03211009174311927,0.03211009174311927,0.009174311926605505,0.006880733944954129,0.01834862385321101,0.02981651376146789,0.0,0.027522935779816515,0.013761467889908258,0.03211009174311927,0.027522935779816515,0.03211009174311927,0.05045871559633028,0.02981651376146789,0.03211009174311927,0.045871559633027525,0.0,0.0,0.0
S14_D16 hbo,0.0,0.012106537530266344,0.014527845036319613,0.03389830508474576,0.0,0.024213075060532687,0.0,0.03389830508474576,0.031476997578692496,0.024213075060532687,0.031476997578692496,0.031476997578692496,0.031476997578692496,0.03631961259079903,0.03389830508474576,0.03631961259079903,0.004842615012106538,0.03389830508474576,0.03389830508474576,0.0,0.0,0.0,0.0,0.0,0.029055690072639227,0.0,0.0,0.03389830508474576,0.026634382566585957,0.0,0.0,0.004842615012106538,0.03389830508474576,0.03389830508474576,0.03389830508474576,0.009685230024213076,0.007263922518159807,0.01937046004842615,0.031476997578692496,0.0,0.029055690072639227,0.014527845036319613,0.03389830508474576,0.029055690072639227,0.03389830508474576,0.031476997578692496,0.053268765133171914,0.03389830508474576,0.029055690072639227,0.0,0.0,0.0
S15_D13 hbo,0.0,0.010845986984815618,0.01735357917570499,0.039045553145336226,0.0,0.021691973969631236,0.0,0.03470715835140998,0.03036876355748373,0.03036876355748373,0.03470715835140998,0.03470715835140998,0.03470715835140998,0.03470715835140998,0.03253796095444685,0.03253796095444685,0.0021691973969631237,0.03470715835140998,0.039045553145336226,0.0,0.0,0.0,0.0,0.0,0.03036876355748373,0.0,0.0,0.03470715835140998,0.026030368763557483,0.0,0.0,0.004338394793926247,0.03253796095444685,0.0368763557483731,0.0368763557483731,0.013015184381778741,0.004338394793926247,0.01735357917570499,0.028199566160520606,0.0,0.03036876355748373,0.015184381778741865,0.039045553145336226,0.028199566160520606,0.03470715835140998,0.028199566160520606,0.028199566160520606,0.03470715835140998,0.03253796095444685,0.0,0.0,0.0
S15_D15 hbo,0.0,0.018691588785046728,0.016355140186915886,0.035046728971962614,0.0,0.02102803738317757,0.0,0.03271028037383177,0.037383177570093455,0.030373831775700934,0.03271028037383177,0.03271028037383177,0.03271028037383177,0.030373831775700934,0.030373831775700934,0.030373831775700934,0.009345794392523364,0.03271028037383177,0.035046728971962614,0.0,0.0,0.0,0.0,0.0,0.028037383177570093,0.0,0.0,0.03271028037383177,0.02336448598130841,0.0,0.0,0.004672897196261682,0.030373831775700934,0.035046728971962614,0.035046728971962614,0.014018691588785047,0.002336448598130841,0.016355140186915886,0.028037383177570093,0.0,0.028037383177570093,0.016355140186915886,0.035046728971962614,0.02570093457943925,0.03271028037383177,0.04672897196261682,0.028037383177570093,0.03271028037383177,0.04672897196261682,0.0,0.0,0.0
S15_D16 hbo,0.0,0.0,0.0,0.0,0.0,0.0,0.0,0.0,0.0,0.0,0.0,0.0,0.0,0.0,0.0,0.0,0.0,0.0,0.0,0.022727272727272728,0.0,0.0,0.0,0.0,0.0,0.0,0.0,0.06818181818181818,0.09090909090909091,0.0,0.0,0.1590909090909091,0.045454545454545456,0.0,0.0,0.0,0.0,0.0,0.0,0.045454545454545456,0.0,0.0,0.0,0.09090909090909091,0.0,0.0,0.0,0.0,0.0,0.4318181818181818,0.0,0.045454545454545456
S16_D14 hbo,0.0,0.0,0.0,0.0,0.0,0.0,0.0,0.0,0.0,0.0,0.0,0.0,0.0,0.0,0.0,0.0,0.0,0.0,0.0,0.0,0.07563025210084033,0.16806722689075632,0.0,0.0,0.0,0.09243697478991597,0.0,0.0,0.0,0.025210084033613446,0.058823529411764705,0.0,0.0,0.0,0.0,0.0,0.0,0.0,0.0,0.01680672268907563,0.0,0.0,0.0,0.0,0.0,0.0,0.0,0.0,0.0,0.0,0.31932773109243695,0.24369747899159663
S16_D16 hbo,0.0,0.0,0.0,0.0,0.0,0.0,0.0,0.0,0.0,0.0,0.0,0.0,0.0,0.0,0.0,0.0,0.0,0.0,0.0,0.02531645569620253,0.10126582278481013,0.14556962025316456,0.0,0.03164556962025317,0.0,0.12025316455696203,0.02531645569620253,0.0,0.0,0.0189873417721519,0.0,0.02531645569620253,0.0,0.0,0.0,0.0,0.0,0.0,0.0,0.08227848101265822,0.0,0.0,0.0,0.0,0.0,0.0,0.0,0.0,0.0,0.0,0.16455696202531644,0.25949367088607594
