,S1_D1 hbo,S1_D3 hbo,S2_D1 hbo,S2_D2 hbo,S2_D4 hbo,S3_D1 hbo,S3_D3 hbo,S3_D4 hbo,S3_D5 hbo,S4_D2 hbo,S4_D4 hbo,S4_D6 hbo,S4_D11 hbo,S5_D3 hbo,S5_D5 hbo,S5_D7 hbo,S6_D4 hbo,S6_D5 hbo,S6_D6 hbo,S6_D8 hbo,S7_D5 hbo,S7_D7 hbo,S7_D8 hbo,S8_D6 hbo,S8_D8 hbo,S8_D15 hbo,S9_D2 hbo,S9_D9 hbo,S9_D11 hbo,S10_D9 hbo,S10_D10 hbo,S10_D12 hbo,S11_D9 hbo,S11_D11 hbo,S11_D12 hbo,S11_D13 hbo,S12_D10 hbo,S12_D12 hbo,S12_D14 hbo,S13_D6 hbo,S13_D11 hbo,S13_D13 hbo,S13_D15 hbo,S14_D12 hbo,S14_D13 hbo,S14_D14 hbo,S14_D16 hbo,S15_D13 hbo,S15_D15 hbo,S15_D16 hbo,S16_D14 hbo,S16_D16 hbo
S1_D1 hbo,0.19199311235471372,0.05391734825656479,0.0,0.0,0.0,0.0,0.08803271631510977,0.0,0.0,0.007246376811594203,0.0,0.0,0.0,0.049146218969723064,0.0,0.0,0.0,0.0,0.0,0.034653465346534656,0.0,0.0,0.0,0.036231884057971016,0.021739130434782608,0.0,0.0,0.028985507246376812,0.014492753623188406,0.03217821782178218,0.07813172621609987,0.034653465346534656,0.03217821782178218,0.0,0.034653465346534656,0.0,0.043478260869565216,0.043478260869565216,0.043478260869565216,0.0,0.014492753623188406,0.0,0.043478260869565216,0.01467211938585163,0.0,0.0,0.021739130434782608,0.0,0.0,0.0297029702970297,0.0,0.007246376811594203
S1_D3 hbo,0.06453703703703703,0.11527777777777777,0.0,0.0,0.0,0.0,0.037037037037037035,0.0,0.0,0.009259259259259259,0.0,0.0,0.0,0.07351851851851851,0.02,0.0,0.0,0.0,0.0,0.05,0.0,0.0,0.0175,0.037037037037037035,0.027777777777777776,0.0,0.0,0.037037037037037035,0.018518518518518517,0.03,0.08953703703703703,0.05,0.0325,0.0,0.0375,0.0,0.037037037037037035,0.037037037037037035,0.037037037037037035,0.0,0.018518518518518517,0.0,0.037037037037037035,0.01675925925925926,0.0,0.0,0.027777777777777776,0.0,0.0,0.0325,0.0,0.009259259259259259
S2_D1 hbo,0.0,0.0,0.08332827101620954,0.026382265690651927,0.019598760744768094,0.017315655721937044,0.007760532150776054,0.024164970790430194,0.024164970790430194,0.0296423979183752,0.024164970790430194,0.019598760744768094,0.024164970790430194,0.003880266075388027,0.023056323340319332,0.019110247142321984,0.024164970790430194,0.024164970790430194,0.019598760744768094,0.01141552511415525,0.023610647065374763,0.01141552511415525,0.02054794520547945,0.024164970790430194,0.0208390284400976,0.024164970790430194,0.024164970790430194,0.024164970790430194,0.024164970790430194,0.023610647065374763,0.005543237250554324,0.0,0.024164970790430194,0.024164970790430194,0.024164970790430194,0.024164970790430194,0.0,0.0,0.0,0.024164970790430194,0.023610647065374763,0.023056323340319332,0.024164970790430194,0.024164970790430194,0.024164970790430194,0.016404438639654143,0.028599560590873655,0.022501999615263897,0.025827941965596492,0.014609847219269204,0.0,0.0
S2_D2 hbo,0.0,0.0,0.023587543408692548,0.027736921002053543,0.02038035178075497,0.01830566298407447,0.0022650056625141564,0.026038166755167923,0.024529729374115967,0.024720046239949625,0.024529729374115967,0.02038035178075497,0.028679106967476962,0.003963759909399773,0.026414101304962807,0.018491280668035695,0.024529729374115967,0.027546604136219885,0.02038035178075497,0.012448132780082987,0.026980352720591346,0.01037344398340249,0.008298755186721992,0.026604418170796465,0.02207440684576815,0.028112855551848424,0.028679106967476962,0.028679106967476962,0.028679106967476962,0.025471915339539387,0.0022650056625141564,0.0,0.028679106967476962,0.028679106967476962,0.028679106967476962,0.028679106967476962,0.0,0.0,0.002074688796680498,0.028679106967476962,0.027546604136219885,0.026414101304962807,0.028679106967476962,0.028112855551848424,0.028112855551848424,0.01961908431742034,0.026414101304962807,0.025847849889334265,0.024149095642448652,0.00848907205255565,0.0,0.0
S2_D4 hbo,0.0,0.0,0.016347302637625218,0.016944674202738718,0.041580507306313755,0.04217787887142726,0.0,0.04098313574120026,0.040779225255031706,0.01813941733296572,0.03256249425604264,0.042979160922709314,0.01754204576785222,0.010591857366050915,0.015749931072511717,0.013957816377171216,0.040575314768863155,0.016944674202738718,0.042979160922709314,0.003205128205128205,0.016347302637625218,0.003205128205128205,0.003205128205128205,0.02535095579450418,0.013360444812057715,0.01754204576785222,0.0391766611524676,0.01813941733296572,0.03576762246117085,0.016347302637625218,0.0,0.023237179487179488,0.028759994485800938,0.01754204576785222,0.021548456024262475,0.01813941733296572,0.0,0.0,0.015224358974358974,0.026152237845786235,0.03878320007352265,0.015749931072511717,0.0375740970499035,0.016944674202738718,0.03697672548479,0.008581472291149712,0.013360444812057715,0.025569226174064884,0.010970958551603713,0.002403846153846154,0.0,0.0
S3_D1 hbo,0.0,0.0,0.015523349249764343,0.016649475375890472,0.04237846336902941,0.04350458949515554,0.0,0.04095776737286171,0.04152083043592478,0.017775601502016597,0.03377605736096302,0.04492528549132323,0.017212538438953533,0.01080250490627849,0.014397223123638218,0.012708033934449029,0.04178932362894627,0.015523349249764343,0.04492528549132323,0.002572898799313894,0.014960286186701281,0.002572898799313894,0.002572898799313894,0.026057360963021338,0.012144970871385965,0.016086412312827408,0.04036862763277858,0.018338664565079658,0.03664352603031848,0.015523349249764343,0.0,0.024871355060034305,0.02921939950241837,0.017212538438953533,0.021500703104476687,0.017775601502016597,0.0,0.0,0.016295025728987993,0.02635193083306291,0.039537071376694016,0.014397223123638218,0.03865336176656931,0.016649475375890472,0.03809029870350625,0.007640466366881461,0.012144970871385965,0.02498338819093536,0.009892718619133713,0.002572898799313894,0.0,0.0
S3_D3 hbo,0.07508680555555555,0.01171875,0.047116126543209874,0.01625192901234568,0.00390625,0.00390625,0.15861304012345678,0.00390625,0.00390625,0.06336805555555555,0.00390625,0.00390625,0.00390625,0.0078125,0.00390625,0.00390625,0.00390625,0.00390625,0.00390625,0.00390625,0.00390625,0.00390625,0.00390625,0.0234375,0.015625,0.00390625,0.00390625,0.01953125,0.01171875,0.00390625,0.058207947530864196,0.0,0.00390625,0.00390625,0.0078125,0.00390625,0.03515625,0.0390625,0.0390625,0.00390625,0.01171875,0.00390625,0.02734375,0.0078125,0.00390625,0.00390625,0.08352623456790123,0.00390625,0.047116126543209874,0.08352623456790123,0.0,0.00390625
S3_D4 hbo,0.0,0.0,0.016162141496664246,0.018189943479863194,0.038709921849975376,0.03799868429663256,0.0,0.03952707008014769,0.038709921849975376,0.01737279524969088,0.03088630876320439,0.038709921849975376,0.019506507909719327,0.009927188562335753,0.017690527280179377,0.013740833990610974,0.03799868429663256,0.01890118103320601,0.038709921849975376,0.004267425320056899,0.018295854156692694,0.0035561877667140826,0.002844950213371266,0.025196408336461862,0.014557982220783292,0.019506507909719327,0.038709921849975376,0.019506507909719327,0.03515373408326129,0.017584616603349878,0.0,0.020625889046941678,0.029463833656518758,0.019506507909719327,0.02306269567643341,0.019506507909719327,0.0,0.0,0.013513513513513514,0.026618883443147494,0.038210505650291555,0.017690527280179377,0.037287446743289744,0.01890118103320601,0.03668211986677643,0.01042660476201957,0.015269219774126108,0.026331288597122672,0.01284791226807284,0.0021337126600284497,0.0,0.0
S3_D5 hbo,0.0,0.0,0.016154222625268097,0.01825761828676714,0.03768029105669991,0.03827766262181342,0.0,0.03858894358797196,0.03918631515308546,0.0179463373206086,0.03225356623627125,0.03903067467000619,0.01885498985188064,0.010205697341336674,0.01706287515654014,0.013764736364814095,0.03903067467000619,0.01825761828676714,0.03903067467000619,0.004518072289156626,0.01766024672165364,0.0037650602409638554,0.0030120481927710845,0.026229469850729083,0.014673388896086135,0.01885498985188064,0.03768029105669991,0.020205373465186912,0.036018626477235104,0.01766024672165364,0.0,0.02033132530120482,0.029397158526579436,0.01885498985188064,0.0226200500928445,0.019452361416994142,0.0,0.0,0.015060240963855422,0.026982481898921853,0.03799157202285846,0.01706287515654014,0.03768029105669991,0.01825761828676714,0.037082919491586416,0.009894416375178131,0.014673388896086135,0.026254660217932664,0.012283902635632133,0.002259036144578313,0.0,0.0
S4_D2 hbo,0.004484304932735426,0.004484304932735426,0.02728544154863917,0.02556719797540292,0.019102695022865518,0.01834569107134929,0.013395196021844337,0.023091950450650447,0.023586999955600943,0.03348799005461084,0.02556719797540292,0.021082893042667496,0.024082049460551435,0.007949651467388892,0.02160680193579896,0.017879500954579762,0.02457709896550193,0.022596900945699952,0.021082893042667496,0.011210762331838564,0.022101851440749457,0.011210762331838564,0.008968609865470852,0.03005150290813835,0.024110908848732408,0.023091950450650447,0.024082049460551435,0.03005150290813835,0.02906140389823736,0.022596900945699952,0.009434799982240376,0.0,0.024082049460551435,0.024082049460551435,0.02457709896550193,0.02457709896550193,0.004484304932735426,0.004484304932735426,0.004484304932735426,0.025072148470452426,0.027081205878435377,0.02160680193579896,0.028566354393286864,0.025829152421968656,0.023586999955600943,0.01566620787639302,0.03302179993784132,0.021111752430848466,0.02457709896550193,0.01563734848821205,0.0,0.002242152466367713
S4_D4 hbo,0.0,0.0,0.01645424836601307,0.01940359477124183,0.03319035947712418,0.033937908496732026,0.0,0.0353921568627451,0.03502859477124183,0.01923202614379085,0.03633169934640523,0.03596813725490196,0.019959150326797386,0.011241830065359476,0.017181372549019608,0.013676470588235293,0.03613970588235294,0.01829248366013072,0.03596813725490196,0.0055147058823529415,0.017736928104575164,0.004595588235294118,0.003676470588235294,0.03045343137254902,0.014959150326797385,0.018848039215686275,0.03650326797385621,0.021625816993464053,0.03705882352941177,0.01829248366013072,0.0,0.016544117647058824,0.032826797385620915,0.019959150326797386,0.025110294117647057,0.020514705882352942,0.0,0.0,0.014705882352941176,0.03026143790849673,0.034836601307189546,0.017181372549019608,0.03650326797385621,0.01940359477124183,0.03594771241830065,0.010514705882352942,0.014959150326797385,0.02857434640522876,0.012736928104575163,0.0027573529411764708,0.0,0.0
S4_D6 hbo,0.0,0.0,0.015982905982905984,0.017094017094017092,0.04113247863247863,0.0427991452991453,0.0,0.04057692307692308,0.04033119658119658,0.01876068376068376,0.03373931623931624,0.04471153846153846,0.017649572649572648,0.010299145299145298,0.014871794871794873,0.013205128205128206,0.04064102564102564,0.015982905982905984,0.04471153846153846,0.003205128205128205,0.015427350427350429,0.003205128205128205,0.003205128205128205,0.027083333333333334,0.01264957264957265,0.01653846153846154,0.03928418803418803,0.019316239316239315,0.03583333333333333,0.015982905982905984,0.0,0.023237179487179488,0.028867521367521368,0.017649572649572648,0.022211538461538463,0.018205128205128204,0.0,0.0,0.015224358974358974,0.02677350427350427,0.03841880341880342,0.014871794871794873,0.03768162393162393,0.017094017094017092,0.037126068376068376,0.008205128205128205,0.01264957264957265,0.024732905982905985,0.010427350427350428,0.002403846153846154,0.0,0.0
S4_D11 hbo,0.0,0.0,0.02113810834298957,0.025623732618771725,0.020343731894553883,0.018969981170336037,0.0,0.025623732618771725,0.024249981894553883,0.022876231170336037,0.024829356170336037,0.020923106170336037,0.028156231894553883,0.004055619930475087,0.02779185979142526,0.018241236964078797,0.024829356170336037,0.02895060834298957,0.020923106170336037,0.01171875,0.028371234067207415,0.009765625,0.0078125,0.026782481170336037,0.02156811268829664,0.027576857618771725,0.030109356894553883,0.032641856170336034,0.028735606170336037,0.02504435834298957,0.0,0.0,0.028156231894553883,0.028156231894553883,0.030109356894553883,0.030688731170336037,0.0,0.0,0.0,0.030688731170336037,0.02699748334298957,0.02779185979142526,0.030109356894553883,0.029529982618771725,0.029529982618771725,0.0208393684820394,0.02547436268829664,0.027212485515643106,0.021203740585168017,0.005859375,0.0,0.0
S5_D3 hbo,0.021241239476352095,0.029880548331643674,0.009600211574910741,0.009600211574910741,0.02592674218715564,0.02592674218715564,0.006122448979591836,0.02592674218715564,0.02592674218715564,0.011641027901441354,0.02592674218715564,0.02592674218715564,0.009600211574910741,0.05616432318067616,0.009600211574910741,0.009600211574910741,0.02592674218715564,0.009600211574910741,0.02592674218715564,0.027958742892405342,0.009600211574910741,0.0020408163265306124,0.0020408163265306124,0.02592674218715564,0.01572266055450258,0.009600211574910741,0.02592674218715564,0.01572266055450258,0.030008374840216862,0.023639088464759553,0.03312028915237801,0.04224445717811963,0.041045532683915906,0.009600211574910741,0.038162824525058404,0.009600211574910741,0.006122448979591836,0.006122448979591836,0.022448979591836733,0.02388592586062503,0.030008374840216862,0.009600211574910741,0.032049191166747475,0.014880768722175695,0.02592674218715564,0.009600211574910741,0.01572266055450258,0.02388592586062503,0.009600211574910741,0.016079693216379424,0.0,0.0020408163265306124
S5_D5 hbo,0.0,0.005813953488372093,0.021199479259127758,0.02501627315225753,0.019291082312562872,0.017382685365997987,0.0,0.02501627315225753,0.023107876205692643,0.021199479259127758,0.023107876205692643,0.019291082312562872,0.026924670098822413,0.004521963824289405,0.033355030869676706,0.019261494763003727,0.023107876205692643,0.030741463991952187,0.019291082312562872,0.011450381679389313,0.028833067045387302,0.009541984732824428,0.012155551610548947,0.02501627315225753,0.022432293824092155,0.026924670098822413,0.030741463991952187,0.030741463991952187,0.026924670098822413,0.02501627315225753,0.0,0.0,0.026924670098822413,0.026924670098822413,0.028833067045387302,0.028833067045387302,0.0,0.0,0.0,0.028833067045387302,0.026924670098822413,0.03009546915991084,0.028833067045387302,0.030741463991952187,0.030741463991952187,0.022989526007456063,0.026249087717221925,0.028187072213345956,0.021756711442491666,0.0057251908396946565,0.0,0.0
S5_D7 hbo,0.0,0.0,0.024245827984595635,0.026877406931964054,0.021614249037227216,0.018982670089858794,0.0,0.026877406931964054,0.026877406931964054,0.024245827984595635,0.026877406931964054,0.021614249037227216,0.026877406931964054,0.005335365853658537,0.026877406931964054,0.023483632862644415,0.026877406931964054,0.026877406931964054,0.021614249037227216,0.013157894736842105,0.026877406931964054,0.013157894736842105,0.010526315789473684,0.026877406931964054,0.026115211810012834,0.026877406931964054,0.026877406931964054,0.026877406931964054,0.026877406931964054,0.026877406931964054,0.0,0.0,0.026877406931964054,0.026877406931964054,0.026877406931964054,0.026877406931964054,0.0,0.0,0.0,0.026877406931964054,0.026877406931964054,0.026877406931964054,0.026877406931964054,0.026877406931964054,0.026877406931964054,0.02001765083440308,0.026115211810012834,0.026877406931964054,0.02306643132220796,0.007894736842105263,0.0,0.0
S6_D4 hbo,0.0,0.0,0.016283749291972897,0.01837723684118515,0.03792140724320469,0.03773871876813773,0.0,0.03886282105969805,0.039438857926057495,0.018011859891051238,0.033003678244512356,0.039073480975923586,0.0189532737075446,0.010102060795927358,0.016649126242106807,0.013403564960175661,0.03925616945099054,0.017801199974825703,0.039073480975923586,0.004552352048558422,0.01722516310846626,0.0037936267071320183,0.0030349013657056147,0.026933875513101124,0.01434497877666902,0.01837723684118515,0.03792140724320469,0.02010534744026349,0.036221268085284926,0.017801199974825703,0.0,0.0204855842185129,0.02957542848751425,0.0189532737075446,0.022746900414676613,0.019529310573904043,0.0,0.0,0.014415781487101669,0.02711656398816808,0.0382867841933386,0.016649126242106807,0.03792140724320469,0.01837723684118515,0.037345370376845245,0.009736683845793445,0.01434497877666902,0.02593651881429061,0.012040831311231234,0.002276176024279211,0.0,0.0
S6_D5 hbo,0.0,0.0006257822277847309,0.02060411335064353,0.02496123886201035,0.019990006164421946,0.0181243345226309,0.0,0.02496123886201035,0.023721349448004032,0.02185567780621299,0.023721349448004032,0.019990006164421946,0.027452692731586126,0.004380475594493116,0.028066799917807708,0.018726766667289334,0.023721349448004032,0.03242392542917453,0.019990006164421946,0.011194029850746268,0.02869258214559244,0.009328358208955223,0.00808846879494891,0.02558702108979508,0.021832327723086693,0.027452692731586126,0.031184036015168212,0.033049707656959255,0.027452692731586126,0.024335456634225615,0.0,0.0,0.027452692731586126,0.027452692731586126,0.02931836437337717,0.02931836437337717,0.0,0.0,0.0,0.02931836437337717,0.02620112827601666,0.02930668933181402,0.02931836437337717,0.03242392542917453,0.03242392542917453,0.02615442810976407,0.025563671006668783,0.027441017690022974,0.021194870453738815,0.005597014925373134,0.0,0.0
S6_D6 hbo,0.0,0.0,0.016111974445307778,0.01723430890097557,0.041272770439437105,0.042395104895104896,0.0,0.04071160321160321,0.04047148838815506,0.018356643356643356,0.03334088750755418,0.044318721402054735,0.01779547612880946,0.010338427005093673,0.01498963998963999,0.013306138306138308,0.04079254079254079,0.016111974445307778,0.044318721402054735,0.003205128205128205,0.015550807217473882,0.003205128205128205,0.003205128205128205,0.026690516273849607,0.012744971078304412,0.016673141673141673,0.039430091513424845,0.01891781058447725,0.03598484848484848,0.016111974445307778,0.0,0.023237179487179488,0.02901342484675818,0.01779547612880946,0.021801886385219717,0.018356643356643356,0.0,0.0,0.015224358974358974,0.02636946386946387,0.03854787188120522,0.01498963998963999,0.03782752741086075,0.01723430890097557,0.03726636018302685,0.008255633255633256,0.012744971078304412,0.02484513942847276,0.010500302166968834,0.002403846153846154,0.0,0.0
S6_D8 hbo,0.03608247422680412,0.05670103092783505,0.006514657980456026,0.009771986970684038,0.004885993485342019,0.003257328990228013,0.0,0.009771986970684038,0.008143322475570033,0.006514657980456026,0.008143322475570033,0.004885993485342019,0.011400651465798045,0.06443298969072164,0.011400651465798045,0.006514657980456026,0.008143322475570033,0.011400651465798045,0.004885993485342019,0.09768628899560093,0.011400651465798045,0.008143322475570033,0.006514657980456026,0.009771986970684038,0.009771986970684038,0.011400651465798045,0.011400651465798045,0.011400651465798045,0.011400651465798045,0.07096443802679742,0.06443298969072164,0.061855670103092786,0.047483125692602164,0.011400651465798045,0.08290238087242688,0.011400651465798045,0.0,0.0,0.0,0.011400651465798045,0.011400651465798045,0.011400651465798045,0.011400651465798045,0.019132610228684642,0.011400651465798045,0.011400651465798045,0.011400651465798045,0.011400651465798045,0.011400651465798045,0.0660784445414554,0.0,0.0
S7_D5 hbo,0.0,0.0,0.020710722632793305,0.025168311996372136,0.02012019793789773,0.018219057253487086,0.0,0.025168311996372136,0.023922479306719025,0.02202133862230838,0.023922479306719025,0.02012019793789773,0.02772476067554032,0.0045871559633027525,0.027659977375678355,0.0187447986485207,0.023922479306719025,0.030871734049604076,0.02012019793789773,0.011406844106463879,0.028970593365193427,0.009505703422053232,0.0076045627376425855,0.02582361999112967,0.022547080017341993,0.02772476067554032,0.03152704204436161,0.03152704204436161,0.02772476067554032,0.0245130040016146,0.0,0.0,0.02772476067554032,0.02772476067554032,0.029625901359950964,0.029625901359950964,0.0,0.0,0.0,0.029625901359950964,0.026414144686025244,0.029561118060089,0.029625901359950964,0.03277287473401472,0.030871734049604076,0.023008038112513642,0.026349361386163284,0.027659977375678355,0.02182698872272249,0.005703422053231939,0.0,0.0
S7_D7 hbo,0.0,0.0,0.008583690987124463,0.012875536480686695,0.006437768240343348,0.004291845493562232,0.0,0.012875536480686695,0.01072961373390558,0.008583690987124463,0.01072961373390558,0.006437768240343348,0.012875536480686695,0.0,0.012875536480686695,0.008583690987124463,0.01072961373390558,0.012875536480686695,0.006437768240343348,0.012875536480686695,0.012875536480686695,0.0407725321888412,0.008583690987124463,0.012875536480686695,0.012875536480686695,0.012875536480686695,0.012875536480686695,0.012875536480686695,0.012875536480686695,0.012875536480686695,0.0,0.0,0.012875536480686695,0.012875536480686695,0.012875536480686695,0.012875536480686695,0.0,0.0,0.002145922746781116,0.012875536480686695,0.012875536480686695,0.012875536480686695,0.012875536480686695,0.012875536480686695,0.012875536480686695,0.012875536480686695,0.012875536480686695,0.012875536480686695,0.012875536480686695,0.006437768240343348,0.0,0.0
S7_D8 hbo,0.002145922746781116,0.05033869383111847,0.017167381974248927,0.01072961373390558,0.006437768240343348,0.004291845493562232,0.002145922746781116,0.01072961373390558,0.01072961373390558,0.01072961373390558,0.01072961373390558,0.006437768240343348,0.01072961373390558,0.002145922746781116,0.05892238481824293,0.008583690987124463,0.01072961373390558,0.01072961373390558,0.006437768240343348,0.01072961373390558,0.01072961373390558,0.01072961373390558,0.18403226640467452,0.012875536480686695,0.0309478256373132,0.01072961373390558,0.01072961373390558,0.012875536480686695,0.012875536480686695,0.01072961373390558,0.002145922746781116,0.05421686746987952,0.01072961373390558,0.01072961373390558,0.08904286674595377,0.01072961373390558,0.002145922746781116,0.002145922746781116,0.004291845493562232,0.01072961373390558,0.012875536480686695,0.01072961373390558,0.012875536480686695,0.012875536480686695,0.01072961373390558,0.05289828843270076,0.012875536480686695,0.01072961373390558,0.01072961373390558,0.006437768240343348,0.006024096385542169,0.07443507937328714
S8_D6 hbo,0.005175983436853002,0.003105590062111801,0.01691856452726018,0.02010006901311249,0.026311249137336092,0.02694271911663216,0.006211180124223602,0.02886128364389234,0.028381642512077296,0.02073153899240856,0.03060386473429952,0.02908902691511387,0.021690821256038648,0.00906487232574189,0.01891304347826087,0.014140786749482402,0.029492753623188407,0.02002415458937198,0.02908902691511387,0.006211180124223602,0.019468599033816425,0.005175983436853002,0.004140786749482402,0.03633540372670807,0.01876121463077985,0.020579710144927536,0.03100759144237405,0.027498274672187715,0.03363354037267081,0.01898895790200138,0.006211180124223602,0.009316770186335404,0.03100759144237405,0.021690821256038648,0.026387163561076604,0.022246376811594203,0.006211180124223602,0.006211180124223602,0.015527950310559006,0.03004830917874396,0.031411318150448585,0.01891304347826087,0.037218771566597655,0.022170462387853692,0.030452035886818496,0.012246376811594203,0.01979641131815045,0.02767425810904072,0.014468599033816424,0.003105590062111801,0.0,0.0010351966873706005
S8_D8 hbo,0.006756756756756757,0.005067567567567568,0.02010055581484153,0.02347893419321991,0.01841136662565234,0.01672217743646315,0.006756756756756757,0.02347893419321991,0.02178974500403072,0.02178974500403072,0.02178974500403072,0.01841136662565234,0.025168123382409098,0.008872883872883874,0.025168123382409098,0.0193156264584836,0.02178974500403072,0.025168123382409098,0.01841136662565234,0.010135135135135136,0.025168123382409098,0.008445945945945946,0.00911154482583054,0.030235690949976666,0.029331431117145403,0.025168123382409098,0.025168123382409098,0.03361406932835505,0.028546501760787477,0.02347893419321991,0.006756756756756757,0.002354788069073783,0.025168123382409098,0.025168123382409098,0.02752291145148288,0.025168123382409098,0.006756756756756757,0.006756756756756757,0.008445945945945946,0.025168123382409098,0.028546501760787477,0.025168123382409098,0.031924880139165855,0.026857312571598287,0.025168123382409098,0.020458547244261528,0.029450761593618736,0.025168123382409098,0.022028405956977387,0.005067567567567568,0.0,0.0040439772582629725
S8_D15 hbo,0.0,0.0,0.020854289671258838,0.025395436985203003,0.020132662730519717,0.01879145710328741,0.0,0.025395436985203003,0.024054231357970697,0.02271302573073839,0.02467381004446388,0.0207522414170129,0.027975799985421677,0.004337050805452293,0.028077848239667615,0.018995553611779285,0.02467381004446388,0.029317005612653983,0.0207522414170129,0.011764705882352941,0.029317005612653983,0.00980392156862745,0.00784313725490196,0.02663459435818937,0.02229754355273708,0.027975799985421677,0.029936584299147168,0.030556162985640352,0.02859537867191486,0.02477585829870982,0.0,0.0,0.027975799985421677,0.027975799985421677,0.029936584299147168,0.030556162985640352,0.0,0.0,0.0,0.030556162985640352,0.02673664261243531,0.028077848239667615,0.029936584299147168,0.029317005612653983,0.029317005612653983,0.021262482688242584,0.02621911218018806,0.028077848239667615,0.02178001312048983,0.0058823529411764705,0.0,0.0
S9_D2 hbo,0.0,0.0,0.016166517433898662,0.018166346255135364,0.03579117507637206,0.035660322079426945,0.0,0.037342482618771725,0.037211629621826614,0.01790464026124513,0.03139895844306331,0.03637054935215422,0.01945594780364479,0.00973743811229327,0.017848677973243444,0.013269646054987885,0.03779100389760877,0.020427881070262298,0.03637054935215422,0.004261363636363636,0.0184280522490256,0.0035511363636363635,0.002840909090909091,0.02571714026124513,0.014110726324660275,0.018876573527862636,0.03934231144000842,0.022166003897608765,0.035660322079426945,0.01758697197935321,0.0,0.019176136363636364,0.02939912962182661,0.01945594780364479,0.02371731144000843,0.020745549352154218,0.0,0.0,0.013494318181818182,0.027847822079426945,0.03747333561571684,0.018558905245970717,0.03792185689455388,0.021007255346044452,0.03876293716422627,0.012316641209312125,0.01553118087011482,0.026502258242915834,0.012503456494258929,0.002130681818181818,0.0,0.0
S9_D9 hbo,0.0075528700906344415,0.004531722054380665,0.01882007385028533,0.02295233299765022,0.018420610943269553,0.01857670359180933,0.0075528700906344415,0.022396777442094666,0.02144175897952333,0.023108425646189996,0.02366398120174555,0.02119838872104733,0.02501846257133266,0.006910036925142665,0.023751258811681775,0.016042296072507553,0.02255287009063444,0.02788351795904666,0.02119838872104733,0.00906344410876133,0.024306814367237327,0.0075528700906344415,0.006042296072507553,0.033282980866062434,0.023039610607586438,0.023907351460221552,0.02803961060758644,0.03876972138301443,0.02859516616314199,0.021841221886539107,0.0075528700906344415,0.0,0.02501846257133266,0.02501846257133266,0.027084592145015105,0.027084592145015105,0.0075528700906344415,0.0075528700906344415,0.0075528700906344415,0.02764014770057066,0.026372943940919772,0.02526183282980866,0.03408190668009399,0.03050520308828466,0.02899462907015777,0.021616314199395772,0.026060758643840214,0.023195703256126216,0.01779624034911044,0.004531722054380665,0.0,0.0015105740181268882
S9_D11 hbo,0.0022189349112426036,0.0022189349112426036,0.016207427807924085,0.018262754615111936,0.03289204591934121,0.03272843781528645,0.0022189349112426036,0.034534943964224366,0.034371335860169605,0.018675183377416627,0.0318251847408175,0.0340441196520601,0.019578436451885582,0.01142870776865814,0.018013933956861995,0.01332724347612685,0.034947372726529057,0.01916600768958089,0.0340441196520601,0.004437869822485207,0.018589970823221443,0.0036982248520710057,0.0029585798816568047,0.02886660485916069,0.016449431461838408,0.019002399585526138,0.03585062580099801,0.024428735036675482,0.03716630763777166,0.017686717748752488,0.0022189349112426036,0.016272189349112426,0.0299334660376844,0.019578436451885582,0.02401630627437079,0.02089411828865923,0.0022189349112426036,0.0022189349112426036,0.014053254437869823,0.028290567992801243,0.036177842009107515,0.018013933956861995,0.038809205682654814,0.02048168952635454,0.035274588934638564,0.011101491560548633,0.01792872140266681,0.027053281705887167,0.01266599405557222,0.0022189349112426036,0.0,0.0007396449704142012
S10_D9 hbo,0.005876068376068376,0.006944444444444444,0.01777623313767892,0.02132246936463804,0.01680439707548141,0.015298372979095871,0.0,0.02132246936463804,0.0198164452682525,0.018310421171866955,0.0198164452682525,0.01680439707548141,0.02282849346102358,0.010683760683760684,0.021760117392647514,0.015639481000926783,0.0198164452682525,0.02282849346102358,0.01680439707548141,0.04158299866131192,0.022294305426835546,0.007530120481927711,0.006024096385542169,0.02132246936463804,0.018117341159509835,0.02282849346102358,0.02282849346102358,0.02282849346102358,0.02282849346102358,0.06484914015034497,0.006944444444444444,0.006944444444444444,0.029772937905468026,0.02282849346102358,0.06139944392956441,0.02282849346102358,0.0,0.004518072289156626,0.004518072289156626,0.02282849346102358,0.022294305426835546,0.021760117392647514,0.02282849346102358,0.024431057563587683,0.02282849346102358,0.015349860982391102,0.019623365255895378,0.02122592935845948,0.01748661311914324,0.046101070950468545,0.0,0.0
S10_D10 hbo,0.057786576168929106,0.05967194570135747,0.01838235294117647,0.007352941176470588,0.0,0.0,0.06966440422322775,0.0,0.0,0.024792609351432883,0.0,0.0,0.0,0.06245286576168929,0.0,0.0,0.0,0.0,0.0,0.04595588235294118,0.0,0.0,0.0,0.03205128205128205,0.019230769230769232,0.0,0.0,0.02564102564102564,0.01282051282051282,0.02389705882352941,0.10921003016591252,0.04595588235294118,0.025735294117647058,0.0,0.03125,0.0,0.05128205128205128,0.05128205128205128,0.05128205128205128,0.0,0.01282051282051282,0.0,0.038461538461538464,0.01192496229260935,0.0,0.0,0.037613122171945707,0.0,0.01838235294117647,0.04868966817496229,0.0,0.00641025641025641
S10_D12 hbo,0.028688524590163935,0.045081967213114756,0.0,0.0,0.03215077605321508,0.03215077605321508,0.0,0.031042128603104215,0.03215077605321508,0.0,0.019955654101995565,0.03215077605321508,0.0,0.06214786812547708,0.0,0.0,0.031042128603104215,0.0,0.03215077605321508,0.05122950819672131,0.0,0.0,0.018442622950819672,0.009977827050997782,0.006147540983606557,0.0,0.028824833702882482,0.0,0.024390243902439025,0.02663934426229508,0.05327868852459016,0.09866507942277636,0.04420958889171604,0.0,0.05882192577514449,0.0,0.0,0.0,0.02106430155210643,0.011086474501108648,0.031042128603104215,0.0,0.02771618625277162,0.006147540983606557,0.02771618625277162,0.014344262295081968,0.0,0.014412416851441241,0.0,0.02663934426229508,0.0020491803278688526,0.018442622950819672
S11_D9 hbo,0.0055055055055055055,0.007007007007007007,0.015328305404641283,0.017737202851706668,0.02873388655831404,0.028280188585532096,0.0,0.031095981477660867,0.030642283504878923,0.016829806906142785,0.031142784005379426,0.029234387058814537,0.01919190182548961,0.01623570135020517,0.018144098296770054,0.01282580290213878,0.031142784005379426,0.019145099297771053,0.029234387058814537,0.012732197846701664,0.018644598797270553,0.004770992366412214,0.003816793893129771,0.027325990112249655,0.014233699348203167,0.018691401324989112,0.033504878924726256,0.020646600799272555,0.03305118095194431,0.023242708357212174,0.007007007007007007,0.020365785632961205,0.03905718695795032,0.01919190182548961,0.03192409967219127,0.021600799272554996,0.0,0.0,0.013358778625954198,0.03018858553209698,0.031549679450442805,0.018144098296770054,0.033504878924726256,0.0221012997730555,0.03300437842422575,0.012138092290764046,0.016142096294768052,0.030048177948941306,0.013185895819483606,0.009369101926353835,0.0,0.0
S11_D11 hbo,0.0,0.0,0.02116874559789153,0.025669688501124666,0.020366709835730353,0.018985299797787018,0.0,0.025669688501124666,0.024288278463181334,0.022906868425237998,0.024867652738963488,0.020946084111512508,0.028209847090632314,0.004055619930475087,0.027853134301229182,0.018271874218980758,0.024867652738963488,0.02901188285279349,0.020946084111512508,0.011764705882352941,0.028432508577011337,0.00980392156862745,0.00784313725490196,0.02682843705268898,0.02161406857064958,0.027630472814850156,0.030170631404357804,0.03075000568013996,0.02878922136641447,0.02509031422534251,0.0,0.0,0.028209847090632314,0.028209847090632314,0.030170631404357804,0.03075000568013996,0.0,0.0,0.0,0.03075000568013996,0.027051098539068,0.027853134301229182,0.030170631404357804,0.029591257128575646,0.029591257128575646,0.02090064299184332,0.02553563719810056,0.027273760025447027,0.021257355781246448,0.0058823529411764705,0.0,0.0
S11_D12 hbo,0.005449591280653951,0.007720254314259764,0.014821417569466389,0.01791786659034854,0.020106050397788365,0.019920223707510776,0.0,0.02293419350222694,0.022294234205228188,0.01663794799635104,0.023202499418670516,0.02101431561123069,0.019466091100789614,0.01418145827246764,0.018289519970903716,0.012550754535860575,0.023202499418670516,0.02029187708806595,0.02101431561123069,0.032884368099817755,0.018743652577624878,0.005470459518599562,0.011188356715697088,0.024296591322390426,0.015647203556742727,0.01855782588734729,0.027124734426829,0.022108407514950603,0.02539068322611034,0.04807743904983931,0.007720254314259764,0.017277907293349788,0.03129440711348545,0.019466091100789614,0.06263055070286214,0.02101431561123069,0.0,0.00437636761487965,0.009846827133479213,0.026484775129830253,0.023574152799225687,0.019383611874623626,0.02603064252310909,0.022562540121671765,0.026670601820107838,0.017112948841017814,0.016472989544019063,0.023305846882782116,0.0135623672134145,0.034350113384092835,0.00045413260672116256,0.005903723887375113
S11_D13 hbo,0.0,0.0,0.020767644918748482,0.025103080281348535,0.020040019403347077,0.01873635702158622,0.0,0.025103080281348535,0.02379941789958768,0.022495755517826822,0.024951491632306574,0.021192093136065973,0.02755881639582828,0.004032258064516129,0.027134368178510792,0.01788746058695125,0.024375454765947123,0.030166141159349985,0.021192093136065973,0.011278195488721804,0.02771040504487024,0.009398496240601503,0.007518796992481203,0.026831190880426875,0.021070822216832402,0.026982779529468835,0.03131821489206888,0.03247028862478778,0.028134853262187724,0.024527043414989083,0.0,0.0,0.02943851564394858,0.02755881639582828,0.02943851564394858,0.031894251758428326,0.0,0.0,0.0018796992481203006,0.030014552510308025,0.026406742663109384,0.029014067426631093,0.02943851564394858,0.03262187727382974,0.030742178025709437,0.022101625030317727,0.024830220713073003,0.026558331312151344,0.020646373999514914,0.005639097744360902,0.0,0.0
S12_D10 hbo,0.028735632183908046,0.017241379310344827,0.0,0.0,0.0,0.0,0.05172413793103448,0.0,0.0,0.005747126436781609,0.0,0.0,0.0,0.011494252873563218,0.0,0.0,0.0,0.0,0.0,0.0,0.0,0.0,0.0,0.028735632183908046,0.017241379310344827,0.0,0.0,0.022988505747126436,0.011494252873563218,0.0,0.040229885057471264,0.0,0.0,0.0,0.005747126436781609,0.0,0.29172413793103447,0.05747126436781609,0.3174712643678161,0.0,0.011494252873563218,0.0,0.034482758620689655,0.005747126436781609,0.0,0.0,0.017241379310344827,0.0,0.0,0.017241379310344827,0.0,0.005747126436781609
S12_D12 hbo,0.022321428571428572,0.013392857142857142,0.0,0.0,0.0,0.0,0.04017857142857143,0.0,0.0,0.004464285714285714,0.0,0.0,0.0,0.008928571428571428,0.0,0.0,0.0,0.0,0.0,0.008928571428571428,0.0,0.0,0.0,0.022321428571428572,0.013392857142857142,0.0,0.0,0.017857142857142856,0.008928571428571428,0.022321428571428572,0.03125,0.0,0.0,0.0,0.026785714285714284,0.0,0.04017857142857143,0.5625,0.0625,0.0,0.008928571428571428,0.0,0.026785714285714284,0.004464285714285714,0.0,0.0,0.013392857142857142,0.0,0.0,0.03571428571428571,0.0,0.004464285714285714
S12_D14 hbo,0.005506607929515419,0.003303964757709251,0.0,0.0,0.02092511013215859,0.02092511013215859,0.009911894273127754,0.02092511013215859,0.02092511013215859,0.0011013215859030838,0.019823788546255508,0.02092511013215859,0.0,0.011013215859030838,0.0,0.0,0.02092511013215859,0.0,0.02092511013215859,0.0022026431718061676,0.0,0.0,0.0,0.015418502202643172,0.003303964757709251,0.0,0.02092511013215859,0.004405286343612335,0.022026431718061675,0.005506607929515419,0.007709251101321586,0.02092511013215859,0.015418502202643172,0.0,0.012114537444933921,0.0,0.21303689427312775,0.015418502202643172,0.33321861233480177,0.011013215859030838,0.023127753303964757,0.0,0.02753303964757709,0.0011013215859030838,0.02092511013215859,0.0,0.003303964757709251,0.014317180616740088,0.0,0.00881057268722467,0.0,0.0011013215859030838
S13_D6 hbo,0.0,0.0,0.01729827653740697,0.020598315707011358,0.028207011359185272,0.028246180963572266,0.0,0.0309048178613396,0.03038092440266353,0.019550528789659224,0.03207011359185272,0.02989620054837446,0.022248335291813554,0.009376224050137093,0.02051997649823737,0.014482961222091657,0.03150705052878966,0.022733059146102623,0.02989620054837446,0.006521739130434782,0.02108303956130043,0.005434782608695652,0.004347826086956522,0.03207011359185272,0.016093811202506855,0.02112220916568743,0.03529181355268311,0.025548374461417937,0.03368096357226792,0.019472189580885233,0.0,0.010869565217391304,0.03311790050920486,0.022248335291813554,0.028770074422248333,0.02389835487661575,0.0,0.0,0.010869565217391304,0.03368096357226792,0.031428711320015665,0.0216069330199765,0.03420485703094399,0.02385918527222875,0.034728750489620056,0.014850176263219743,0.018267724245985113,0.03082647865256561,0.014928515471993732,0.003260869565217391,0.0,0.0
S13_D11 hbo,0.0020161290322580645,0.0020161290322580645,0.0163358147229115,0.018300248138957816,0.03510132340777502,0.03442928039702233,0.0020161290322580645,0.0364454094292804,0.0364454094292804,0.017628205128205128,0.029724979321753515,0.03510132340777502,0.018972291149710503,0.011062861869313483,0.018403639371381307,0.013854425144747724,0.03577336641852771,0.01964433416046319,0.03510132340777502,0.004032258064516129,0.01902398676592225,0.003360215053763441,0.002688172043010753,0.026364764267990073,0.016594292803970224,0.018972291149710503,0.0364454094292804,0.021660463192721257,0.03510132340777502,0.017679900744416874,0.0020161290322580645,0.018145161290322582,0.029052936311000827,0.018972291149710503,0.023004549214226632,0.02031637717121588,0.0020161290322580645,0.0020161290322580645,0.01478494623655914,0.026364764267990073,0.037841191066997515,0.018403639371381307,0.038461538461538464,0.02098842018196857,0.0364454094292804,0.010959470636889991,0.017938378825475602,0.02651985111662531,0.012768817204301074,0.0020161290322580645,0.0,0.0006720430107526882
S13_D13 hbo,0.0,0.0,0.02149063670411985,0.025235955056179774,0.019617977528089886,0.017745318352059926,0.0,0.025235955056179774,0.023363295880149813,0.02149063670411985,0.023363295880149813,0.019617977528089886,0.02710861423220974,0.004666666666666667,0.028314606741573035,0.01949063670411985,0.023363295880149813,0.03272659176029963,0.019617977528089886,0.011235955056179775,0.0289812734082397,0.009363295880149813,0.00749063670411985,0.025235955056179774,0.02256928838951311,0.02710861423220974,0.03085393258426966,0.03272659176029963,0.02710861423220974,0.025235955056179774,0.0,0.0,0.02710861423220974,0.02710861423220974,0.0289812734082397,0.0289812734082397,0.0,0.0,0.0,0.0289812734082397,0.02710861423220974,0.030187265917603,0.0289812734082397,0.03272659176029963,0.03272659176029963,0.024726591760299628,0.026314606741573036,0.028314606741573035,0.021775280898876405,0.0056179775280898875,0.0,0.0
S13_D15 hbo,0.0033467202141900937,0.002008032128514056,0.016002984514341647,0.01792104687579984,0.03322599009401841,0.03313602032696254,0.004685408299866131,0.03465464794675031,0.03456467817969444,0.01841045138452613,0.03045864415561047,0.03380536436980056,0.019169765194420013,0.010749060358855273,0.01752161213412941,0.01310611313543087,0.035144052455476596,0.01934970472853174,0.03380536436980056,0.004016064257028112,0.018100986409911566,0.0033467202141900937,0.002677376171352075,0.028450612027096412,0.01587345907383881,0.01859039091863786,0.03590336626537048,0.02376520372723028,0.03581339649831462,0.017341672600017684,0.004685408299866131,0.01673360107095047,0.028540581794152274,0.019169765194420013,0.023185829451448127,0.020418483513040188,0.004685408299866131,0.004685408299866131,0.01673360107095047,0.027111923941420375,0.036083305799482206,0.018190956176967428,0.039919430522398595,0.020598423047151912,0.03532399198958833,0.011238464867581566,0.017212147159514843,0.0256437104152415,0.01221727388503415,0.002008032128514056,0.0,0.0006693440428380187
S14_D12 hbo,0.004975521103775684,0.004975521103775684,0.019566426822935985,0.023410726207254658,0.019058304280097915,0.017418960017802833,0.003278688524590164,0.023410726207254658,0.02233699280468808,0.02233699280468808,0.02233699280468808,0.019058304280097915,0.025615681329278245,0.008934797121875232,0.024992582152659298,0.01673837252429345,0.02233699280468808,0.029402492396706476,0.019058304280097915,0.011532898152956012,0.025558193012387806,0.00819672131147541,0.006557377049180328,0.027255025591573327,0.02273013871374527,0.025050070469549737,0.02889436985386841,0.03381240264075366,0.02889436985386841,0.024541947926711667,0.004975521103775684,0.0016968325791855204,0.028951858170758845,0.025615681329278245,0.028951858170758845,0.02889436985386841,0.003278688524590164,0.003278688524590164,0.003278688524590164,0.027255025591573327,0.027763148134411393,0.02663192641495438,0.030533714116163492,0.036017357762777244,0.029968103256434984,0.023123284622802463,0.026008827238335436,0.02442697129293079,0.01882835101253616,0.006614865366070767,0.0,0.001639344262295082
S14_D13 hbo,0.0,0.0,0.01642162919034676,0.018470471954534225,0.03513919775965736,0.03440820360761057,0.0,0.036745325755703814,0.03660118606375093,0.017595338110534552,0.03148422699942344,0.03513919775965736,0.019788320566674903,0.009955934437031546,0.018171896878346097,0.013487356889877275,0.03660118606375093,0.02080759410262746,0.03513919775965736,0.0043859649122807015,0.018758751338439995,0.003654970760233918,0.0029239766081871343,0.02563627378304917,0.014362490733876946,0.01920146610658101,0.03879416851989127,0.021981303022815254,0.03587019191170414,0.017883617494440326,0.0,0.01827485380116959,0.030022238695329873,0.019788320566674903,0.024174285478955605,0.020519314718721687,0.0,0.0,0.013888888888888888,0.027829256239189522,0.0368894654476567,0.01890289103039288,0.03879416851989127,0.02139444856272136,0.038938308211844165,0.01332262581335969,0.01582447903797051,0.02708796639486039,0.012746067045548141,0.0021929824561403508,0.0,0.0
S14_D14 hbo,0.0,0.0,0.01920906679527369,0.02284543043163733,0.017390884977091875,0.015572703158910055,0.0,0.02284543043163733,0.021027248613455507,0.01920906679527369,0.021027248613455507,0.017390884977091875,0.024663612249819146,0.009283819628647215,0.026481794068000962,0.01920906679527369,0.021027248613455507,0.0301181577043646,0.017390884977091875,0.01090909090909091,0.026481794068000962,0.00909090909090909,0.016556546901374487,0.02284543043163733,0.026824210272486135,0.024663612249819146,0.028299975886182785,0.03193633952254642,0.024663612249819146,0.02284543043163733,0.0,0.009283819628647215,0.024663612249819146,0.024663612249819146,0.03576561369664818,0.026481794068000962,0.0,0.0,0.0,0.026481794068000962,0.024663612249819146,0.028299975886182785,0.026481794068000962,0.0301181577043646,0.0301181577043646,0.04947673016638534,0.026481794068000962,0.026481794068000962,0.024663612249819146,0.005454545454545455,0.001326259946949602,0.009283819628647215
S14_D16 hbo,0.006289308176100629,0.0047169811320754715,0.027122641509433963,0.023546865489957394,0.01614171231487117,0.014569385270846013,0.019730168391154393,0.020858693446946644,0.019286366402921487,0.03138314059646987,0.019286366402921487,0.01614171231487117,0.0224310204909718,0.007848955163319132,0.024003347534996958,0.017041996348143643,0.019286366402921487,0.025575674579022115,0.01614171231487117,0.009433962264150943,0.024003347534996958,0.007861635220125786,0.006289308176100629,0.02714800162304727,0.024903631568269427,0.0224310204909718,0.025575674579022115,0.0334373097991479,0.025575674579022115,0.020858693446946644,0.01300973828362751,0.0,0.0224310204909718,0.0224310204909718,0.024003347534996958,0.024003347534996958,0.006289308176100629,0.006289308176100629,0.007861635220125786,0.024003347534996958,0.025575674579022115,0.025575674579022115,0.030292655711097585,0.02714800162304727,0.025575674579022115,0.020199330493000607,0.042161188882126194,0.024003347534996958,0.029151450598498684,0.01950192736863461,0.0,0.0015723270440251573
S15_D13 hbo,0.0009487666034155598,0.0009487666034155598,0.017742067808362377,0.0196396010151935,0.029127267049349096,0.028178500445933535,0.0009487666034155598,0.03197356685959578,0.031024800256180214,0.018690834411777938,0.031024800256180214,0.029127267049349096,0.020588367618609056,0.010574050108638407,0.02083978415228961,0.015650017599157358,0.031024800256180214,0.022485900825440178,0.029127267049349096,0.0056925996204933585,0.021537134222024617,0.004743833017077799,0.003795066413662239,0.029127267049349096,0.018496317409404037,0.020588367618609056,0.03481986666984246,0.023434667428855735,0.03387110006642689,0.0196396010151935,0.0009487666034155598,0.012333965844402278,0.03197356685959578,0.020588367618609056,0.026280967239102417,0.021537134222024617,0.0009487666034155598,0.0009487666034155598,0.012333965844402278,0.030076033652764657,0.03387110006642689,0.02178855075570517,0.03481986666984246,0.0243834340322713,0.03481986666984246,0.014815050058355102,0.020393850616235158,0.03222498339327633,0.01570691713046401,0.0028462998102466793,0.0,0.0009487666034155598
S15_D15 hbo,0.0,0.0,0.03033448673587082,0.026470588235294117,0.0171280276816609,0.01516724336793541,0.012110726643598616,0.02301038062283737,0.02104959630911188,0.031199538638985006,0.02104959630911188,0.0171280276816609,0.02497116493656286,0.006055363321799308,0.02693194925028835,0.01908881199538639,0.02104959630911188,0.02693194925028835,0.0171280276816609,0.011764705882352941,0.02693194925028835,0.00980392156862745,0.00784313725490196,0.02301038062283737,0.02301038062283737,0.02497116493656286,0.02693194925028835,0.02693194925028835,0.02497116493656286,0.02301038062283737,0.00865051903114187,0.0,0.02497116493656286,0.02497116493656286,0.02693194925028835,0.02693194925028835,0.0,0.0,0.0,0.02693194925028835,0.02497116493656286,0.02693194925028835,0.02693194925028835,0.02693194925028835,0.02693194925028835,0.022606689734717418,0.03904267589388696,0.02693194925028835,0.0353517877739331,0.017993079584775085,0.0,0.0
S15_D16 hbo,0.0196078431372549,0.025490196078431372,0.03505554312979945,0.015447699992544545,0.005703422053231939,0.0038022813688212928,0.04503839558637143,0.0076045627376425855,0.0076045627376425855,0.04289868038470141,0.0076045627376425855,0.005703422053231939,0.0076045627376425855,0.025490196078431372,0.0076045627376425855,0.0076045627376425855,0.0076045627376425855,0.0076045627376425855,0.005703422053231939,0.06541415045105495,0.0076045627376425855,0.0076045627376425855,0.0076045627376425855,0.0076045627376425855,0.0076045627376425855,0.0076045627376425855,0.0076045627376425855,0.0076045627376425855,0.0076045627376425855,0.07670170729888914,0.045098039215686274,0.025490196078431372,0.031133974502348467,0.0076045627376425855,0.07682099455751883,0.0076045627376425855,0.0019011406844106464,0.011406844106463879,0.011406844106463879,0.0076045627376425855,0.0076045627376425855,0.0076045627376425855,0.0076045627376425855,0.013486915678819055,0.0076045627376425855,0.0076045627376425855,0.05074181763960337,0.0076045627376425855,0.03505554312979945,0.12768209945575187,0.0,0.0
S16_D14 hbo,0.0,0.0,0.012195121951219513,0.012195121951219513,0.012195121951219513,0.012195121951219513,0.0,0.012195121951219513,0.012195121951219513,0.012195121951219513,0.012195121951219513,0.012195121951219513,0.012195121951219513,0.0,0.012195121951219513,0.012195121951219513,0.012195121951219513,0.012195121951219513,0.012195121951219513,0.012195121951219513,0.012195121951219513,0.012195121951219513,0.09552845528455284,0.012195121951219513,0.09552845528455284,0.012195121951219513,0.012195121951219513,0.012195121951219513,0.012195121951219513,0.012195121951219513,0.0,0.08333333333333333,0.012195121951219513,0.012195121951219513,0.09552845528455284,0.012195121951219513,0.0,0.0,0.0,0.012195121951219513,0.012195121951219513,0.012195121951219513,0.012195121951219513,0.012195121951219513,0.012195121951219513,0.09552845528455284,0.012195121951219513,0.012195121951219513,0.012195121951219513,0.012195121951219513,0.0,0.08333333333333333
S16_D16 hbo,0.013513513513513514,0.013513513513513514,0.006756756756756757,0.006756756756756757,0.006756756756756757,0.006756756756756757,0.013513513513513514,0.006756756756756757,0.006756756756756757,0.013513513513513514,0.006756756756756757,0.006756756756756757,0.006756756756756757,0.013513513513513514,0.006756756756756757,0.006756756756756757,0.006756756756756757,0.006756756756756757,0.006756756756756757,0.006756756756756757,0.006756756756756757,0.006756756756756757,0.09961389961389962,0.02027027027027027,0.0416988416988417,0.006756756756756757,0.006756756756756757,0.02027027027027027,0.02027027027027027,0.006756756756756757,0.013513513513513514,0.06428571428571428,0.006756756756756757,0.006756756756756757,0.09961389961389962,0.006756756756756757,0.013513513513513514,0.013513513513513514,0.013513513513513514,0.006756756756756757,0.02027027027027027,0.006756756756756757,0.02027027027027027,0.013513513513513514,0.006756756756756757,0.05675675675675676,0.02027027027027027,0.006756756756756757,0.006756756756756757,0.006756756756756757,0.007142857142857143,0.17818532818532817
