,S1_D1 hbo,S1_D3 hbo,S2_D1 hbo,S2_D2 hbo,S2_D4 hbo,S3_D1 hbo,S3_D3 hbo,S3_D4 hbo,S3_D5 hbo,S4_D2 hbo,S4_D4 hbo,S4_D6 hbo,S4_D11 hbo,S5_D3 hbo,S5_D5 hbo,S5_D7 hbo,S6_D4 hbo,S6_D5 hbo,S6_D6 hbo,S6_D8 hbo,S7_D5 hbo,S7_D7 hbo,S7_D8 hbo,S8_D6 hbo,S8_D8 hbo,S8_D15 hbo,S9_D2 hbo,S9_D9 hbo,S9_D11 hbo,S10_D9 hbo,S10_D10 hbo,S10_D12 hbo,S11_D9 hbo,S11_D11 hbo,S11_D12 hbo,S11_D13 hbo,S12_D10 hbo,S12_D12 hbo,S12_D14 hbo,S13_D6 hbo,S13_D11 hbo,S13_D13 hbo,S13_D15 hbo,S14_D12 hbo,S14_D13 hbo,S14_D14 hbo,S14_D16 hbo,S15_D13 hbo,S15_D15 hbo,S15_D16 hbo,S16_D14 hbo,S16_D16 hbo
S1_D1 hbo,0.0,0.0,0.0,0.0,0.0,0.0,0.0,0.0,0.0,0.0,0.0,0.0,0.0,0.0,0.0,0.0,0.0,0.0,0.0,0.0,0.0,0.0,0.0,0.0,0.0,0.0,0.0,0.0,0.0,0.0,0.0,0.0,0.0,0.0,0.0,0.0,0.0,0.0,0.0,0.0,0.0,0.0,0.0,0.0,0.0,0.0,0.0,0.0,0.0,0.0,0.0,0.0
S1_D3 hbo,0.0,0.0,0.0,0.0,0.0,0.0,0.0,0.0,0.0,0.0,0.0,0.0,0.0,0.0,0.0,0.0,0.0,0.0,0.0,0.0,0.0,0.0,0.0,0.0,0.0,0.0,0.0,0.0,0.0,0.0,0.0,0.0,0.0,0.0,0.0,0.0,0.0,0.0,0.0,0.0,0.0,0.0,0.0,0.0,0.0,0.0,0.0,0.0,0.0,0.0,0.0,0.0
S2_D1 hbo,0.0,0.0,0.0,0.0,0.0,0.0,0.0,0.0,0.0,0.0,0.0,0.0,0.0,0.0,0.0,0.0,0.0,0.0,0.0,0.0,0.0,0.0,0.0,0.0,0.0,0.0,0.0,0.0,0.0,0.0,0.0,0.0,0.0,0.0,0.0,0.0,0.0,0.0,0.0,0.0,0.0,0.0,0.0,0.0,0.0,0.0,0.0,0.0,0.0,0.0,0.0,0.0
S2_D2 hbo,0.0,0.0,0.0,0.0,0.0,0.0,0.0,0.0,0.0,0.0,0.0,0.0,0.0,0.0,0.0,0.0,0.0,0.0,0.0,0.0,0.0,0.0,0.0,0.0,0.0,0.0,0.0,0.0,0.0,0.0,0.0,0.0,0.0,0.0,0.0,0.0,0.0,0.0,0.0,0.0,0.0,0.0,0.0,0.0,0.0,0.0,0.0,0.0,0.0,0.0,0.0,0.0
S2_D4 hbo,0.0,0.0,0.0,0.0,0.0,0.0,0.0,0.0,0.0,0.0,0.0,0.0,0.0,0.0,0.0,0.0,0.0,0.0,0.0,0.0,0.0,0.0,0.0,0.0,0.0,0.0,0.0,0.0,0.0,0.0,0.0,0.0,0.0,0.0,0.0,0.0,0.0,0.0,0.0,0.0,0.0,0.0,0.0,0.0,0.0,0.0,0.0,0.0,0.0,0.0,0.0,0.0
S3_D1 hbo,0.0,0.0,0.0,0.0,0.0,0.03116883116883117,0.02857142857142857,0.033766233766233764,0.0,0.0,0.007792207792207792,0.033766233766233764,0.03116883116883117,0.0,0.033766233766233764,0.033766233766233764,0.033766233766233764,0.033766233766233764,0.033766233766233764,0.033766233766233764,0.02857142857142857,0.033766233766233764,0.0,0.033766233766233764,0.03116883116883117,0.033766233766233764,0.02857142857142857,0.033766233766233764,0.033766233766233764,0.0,0.0,0.025974025974025976,0.023376623376623377,0.033766233766233764,0.03116883116883117,0.033766233766233764,0.0,0.0,0.0,0.02857142857142857,0.033766233766233764,0.033766233766233764,0.0,0.0,0.033766233766233764,0.0,0.033766233766233764,0.02857142857142857,0.0,0.0,0.0,0.033766233766233764
S3_D3 hbo,0.0,0.0,0.0,0.0,0.0,0.03051643192488263,0.03051643192488263,0.03286384976525822,0.0,0.0,0.007042253521126761,0.03286384976525822,0.03286384976525822,0.0,0.03286384976525822,0.03286384976525822,0.03286384976525822,0.03286384976525822,0.03286384976525822,0.03286384976525822,0.03051643192488263,0.03286384976525822,0.0,0.03286384976525822,0.028169014084507043,0.03286384976525822,0.03051643192488263,0.03286384976525822,0.03286384976525822,0.004694835680751174,0.0,0.028169014084507043,0.025821596244131457,0.03286384976525822,0.03286384976525822,0.03286384976525822,0.0,0.0,0.0,0.03051643192488263,0.03286384976525822,0.03286384976525822,0.0,0.0,0.03286384976525822,0.0,0.03286384976525822,0.03051643192488263,0.0,0.0,0.0,0.03286384976525822
S3_D4 hbo,0.0,0.0,0.0,0.0,0.0,0.018518518518518517,0.019943019943019943,0.04131054131054131,0.0,0.0,0.004273504273504274,0.042735042735042736,0.02564102564102564,0.0,0.03418803418803419,0.03276353276353276,0.042735042735042736,0.042735042735042736,0.03276353276353276,0.042735042735042736,0.024216524216524215,0.02564102564102564,0.0,0.04131054131054131,0.017094017094017096,0.03276353276353276,0.024216524216524215,0.03561253561253561,0.03561253561253561,0.005698005698005698,0.0,0.022792022792022793,0.022792022792022793,0.03276353276353276,0.019943019943019943,0.042735042735042736,0.0,0.0,0.0,0.019943019943019943,0.039886039886039885,0.03276353276353276,0.0,0.0,0.042735042735042736,0.0,0.037037037037037035,0.029914529914529916,0.0,0.0,0.0,0.03418803418803419
S3_D5 hbo,0.0,0.0,0.0,0.0,0.0,0.0,0.0,0.0,0.4444444444444444,0.0,0.0,0.0,0.0,0.0,0.0,0.0,0.0,0.0,0.0,0.0,0.0,0.0,0.0,0.0,0.0,0.0,0.0,0.0,0.0,0.0,0.0,0.0,0.0,0.0,0.0,0.0,0.0,0.0,0.5555555555555556,0.0,0.0,0.0,0.0,0.0,0.0,0.0,0.0,0.0,0.0,0.0,0.0,0.0
S4_D2 hbo,0.0,0.0,0.0,0.0,0.0,0.0,0.0,0.0,0.0,0.0,0.0,0.0,0.0,0.0,0.0,0.0,0.0,0.0,0.0,0.0,0.0,0.0,0.0,0.0,0.0,0.0,0.0,0.0,0.0,0.0,0.0,0.0,0.0,0.0,0.0,0.0,0.0,0.0,0.0,0.0,0.0,0.0,0.0,0.0,0.0,0.0,0.0,0.0,0.0,0.0,0.0,0.0
S4_D4 hbo,0.0,0.0,0.0,0.0,0.0,0.031578947368421054,0.031578947368421054,0.031578947368421054,0.0,0.0,0.021052631578947368,0.031578947368421054,0.031578947368421054,0.0,0.031578947368421054,0.031578947368421054,0.031578947368421054,0.031578947368421054,0.031578947368421054,0.031578947368421054,0.031578947368421054,0.031578947368421054,0.0,0.031578947368421054,0.031578947368421054,0.031578947368421054,0.031578947368421054,0.031578947368421054,0.031578947368421054,0.0,0.0,0.031578947368421054,0.031578947368421054,0.031578947368421054,0.031578947368421054,0.031578947368421054,0.0,0.0,0.0,0.031578947368421054,0.031578947368421054,0.031578947368421054,0.0,0.0,0.031578947368421054,0.0,0.031578947368421054,0.031578947368421054,0.0,0.0,0.0,0.031578947368421054
S4_D6 hbo,0.0,0.0,0.0,0.0,0.0,0.018439716312056736,0.019858156028368795,0.04113475177304964,0.0,0.0,0.00425531914893617,0.0425531914893617,0.02553191489361702,0.0,0.03404255319148936,0.032624113475177303,0.0425531914893617,0.04397163120567376,0.032624113475177303,0.04397163120567376,0.024113475177304965,0.02553191489361702,0.0,0.04113475177304964,0.01702127659574468,0.032624113475177303,0.024113475177304965,0.03546099290780142,0.03546099290780142,0.005673758865248227,0.0,0.02269503546099291,0.02269503546099291,0.032624113475177303,0.019858156028368795,0.04397163120567376,0.0,0.0,0.0,0.019858156028368795,0.03971631205673759,0.032624113475177303,0.0,0.0,0.0425531914893617,0.0,0.03687943262411347,0.029787234042553193,0.0,0.0,0.0,0.03404255319148936
S4_D11 hbo,0.0,0.0,0.0,0.0,0.0,0.02462121212121212,0.026515151515151516,0.03409090909090909,0.0,0.0,0.005681818181818182,0.03409090909090909,0.032196969696969696,0.0,0.03409090909090909,0.03409090909090909,0.03409090909090909,0.03409090909090909,0.03409090909090909,0.03409090909090909,0.030303030303030304,0.03409090909090909,0.0,0.03409090909090909,0.022727272727272728,0.03409090909090909,0.030303030303030304,0.03409090909090909,0.03409090909090909,0.007575757575757576,0.0,0.028409090909090908,0.026515151515151516,0.03409090909090909,0.026515151515151516,0.03409090909090909,0.0,0.0,0.0,0.026515151515151516,0.03409090909090909,0.03409090909090909,0.0,0.0,0.03409090909090909,0.0,0.03409090909090909,0.030303030303030304,0.0,0.0,0.0,0.03409090909090909
S5_D3 hbo,0.0,0.0,0.0,0.0,0.0,0.0,0.0,0.0,0.0,0.0,0.0,0.0,0.0,0.0,0.0,0.0,0.0,0.0,0.0,0.0,0.0,0.0,0.0,0.0,0.0,0.0,0.0,0.0,0.0,0.0,0.0,0.0,0.0,0.0,0.0,0.0,0.0,0.0,0.0,0.0,0.0,0.0,0.0,0.0,0.0,0.0,0.0,0.0,0.0,0.0,0.0,0.0
S5_D5 hbo,0.0,0.0,0.0,0.0,0.0,0.020186335403726708,0.021739130434782608,0.037267080745341616,0.0,0.0,0.004658385093167702,0.037267080745341616,0.027950310559006212,0.0,0.03571428571428571,0.03571428571428571,0.037267080745341616,0.037267080745341616,0.034161490683229816,0.037267080745341616,0.026397515527950312,0.027950310559006212,0.0,0.037267080745341616,0.018633540372670808,0.03571428571428571,0.026397515527950312,0.037267080745341616,0.037267080745341616,0.006211180124223602,0.0,0.024844720496894408,0.024844720496894408,0.03571428571428571,0.021739130434782608,0.037267080745341616,0.0,0.0,0.0,0.021739130434782608,0.037267080745341616,0.03571428571428571,0.0,0.0,0.037267080745341616,0.0,0.037267080745341616,0.031055900621118012,0.0,0.0,0.0,0.03571428571428571
S5_D7 hbo,0.0,0.0,0.0,0.0,0.0,0.02073365231259968,0.022328548644338118,0.03668261562998405,0.0,0.0,0.004784688995215311,0.03668261562998405,0.028708133971291867,0.0,0.03508771929824561,0.03508771929824561,0.03668261562998405,0.03668261562998405,0.03508771929824561,0.03668261562998405,0.02711323763955343,0.028708133971291867,0.0,0.03668261562998405,0.019138755980861243,0.03508771929824561,0.02711323763955343,0.03668261562998405,0.03668261562998405,0.006379585326953748,0.0,0.025518341307814992,0.025518341307814992,0.03668261562998405,0.022328548644338118,0.03668261562998405,0.0,0.0,0.0,0.022328548644338118,0.03668261562998405,0.03668261562998405,0.0,0.0,0.03668261562998405,0.0,0.03668261562998405,0.030303030303030304,0.0,0.0,0.0,0.03508771929824561
S6_D4 hbo,0.0,0.0,0.0,0.0,0.0,0.018439716312056736,0.019858156028368795,0.04113475177304964,0.0,0.0,0.00425531914893617,0.0425531914893617,0.02553191489361702,0.0,0.03404255319148936,0.032624113475177303,0.0425531914893617,0.04397163120567376,0.032624113475177303,0.04397163120567376,0.024113475177304965,0.02553191489361702,0.0,0.04113475177304964,0.01702127659574468,0.032624113475177303,0.024113475177304965,0.03546099290780142,0.03546099290780142,0.005673758865248227,0.0,0.02269503546099291,0.02269503546099291,0.032624113475177303,0.019858156028368795,0.04397163120567376,0.0,0.0,0.0,0.019858156028368795,0.03971631205673759,0.032624113475177303,0.0,0.0,0.0425531914893617,0.0,0.03687943262411347,0.029787234042553193,0.0,0.0,0.0,0.03404255319148936
S6_D5 hbo,0.0,0.0,0.0,0.0,0.0,0.01793103448275862,0.019310344827586208,0.041379310344827586,0.0,0.0,0.004137931034482759,0.04275862068965517,0.02482758620689655,0.0,0.03310344827586207,0.031724137931034485,0.04275862068965517,0.04551724137931035,0.031724137931034485,0.04551724137931035,0.023448275862068966,0.02482758620689655,0.0,0.04275862068965517,0.016551724137931035,0.031724137931034485,0.023448275862068966,0.037241379310344824,0.03586206896551724,0.005517241379310344,0.0,0.022068965517241378,0.022068965517241378,0.031724137931034485,0.019310344827586208,0.04551724137931035,0.0,0.0,0.0,0.019310344827586208,0.04,0.031724137931034485,0.0,0.0,0.044137931034482755,0.0,0.038620689655172416,0.030344827586206897,0.0,0.0,0.0,0.03310344827586207
S6_D6 hbo,0.0,0.0,0.0,0.0,0.0,0.0214168039538715,0.023064250411861616,0.03789126853377265,0.0,0.0,0.004942339373970346,0.03789126853377265,0.029654036243822075,0.0,0.032948929159802305,0.032948929159802305,0.03789126853377265,0.03789126853377265,0.036243822075782535,0.03789126853377265,0.02800658978583196,0.029654036243822075,0.0,0.03789126853377265,0.019769357495881382,0.032948929159802305,0.02800658978583196,0.03459637561779242,0.03459637561779242,0.006589785831960461,0.0,0.026359143327841845,0.02471169686985173,0.03459637561779242,0.023064250411861616,0.03789126853377265,0.0,0.0,0.0,0.023064250411861616,0.03789126853377265,0.03459637561779242,0.0,0.0,0.03789126853377265,0.0,0.036243822075782535,0.02800658978583196,0.0,0.0,0.0,0.032948929159802305
S6_D8 hbo,0.0,0.0,0.0,0.0,0.0,0.017663043478260868,0.019021739130434784,0.04076086956521739,0.0,0.0,0.004076086956521739,0.042119565217391304,0.024456521739130436,0.0,0.03260869565217391,0.03125,0.042119565217391304,0.04619565217391304,0.03125,0.04891304347826087,0.02309782608695652,0.024456521739130436,0.0,0.043478260869565216,0.016304347826086956,0.03125,0.02309782608695652,0.036684782608695655,0.035326086956521736,0.005434782608695652,0.0,0.021739130434782608,0.021739130434782608,0.03125,0.019021739130434784,0.04891304347826087,0.0,0.0,0.0,0.019021739130434784,0.03940217391304348,0.03125,0.0,0.0,0.04755434782608696,0.0,0.03804347826086957,0.029891304347826088,0.0,0.0,0.0,0.03260869565217391
S7_D5 hbo,0.0,0.0,0.0,0.0,0.0,0.025590551181102362,0.027559055118110236,0.03346456692913386,0.0,0.0,0.005905511811023622,0.03346456692913386,0.03346456692913386,0.0,0.03346456692913386,0.03346456692913386,0.03346456692913386,0.03346456692913386,0.03346456692913386,0.03346456692913386,0.031496062992125984,0.03346456692913386,0.0,0.03346456692913386,0.023622047244094488,0.03346456692913386,0.031496062992125984,0.03346456692913386,0.03346456692913386,0.007874015748031496,0.0,0.02952755905511811,0.027559055118110236,0.03346456692913386,0.027559055118110236,0.03346456692913386,0.0,0.0,0.0,0.027559055118110236,0.03346456692913386,0.03346456692913386,0.0,0.0,0.03346456692913386,0.0,0.03346456692913386,0.031496062992125984,0.0,0.0,0.0,0.03346456692913386
S7_D7 hbo,0.0,0.0,0.0,0.0,0.0,0.02495201535508637,0.026871401151631478,0.0345489443378119,0.0,0.0,0.005758157389635317,0.0345489443378119,0.030710172744721688,0.0,0.0345489443378119,0.0345489443378119,0.0345489443378119,0.0345489443378119,0.0345489443378119,0.0345489443378119,0.028790786948176585,0.03262955854126679,0.0,0.0345489443378119,0.023032629558541268,0.0345489443378119,0.028790786948176585,0.0345489443378119,0.0345489443378119,0.007677543186180422,0.0,0.026871401151631478,0.02495201535508637,0.0345489443378119,0.026871401151631478,0.0345489443378119,0.0,0.0,0.0,0.026871401151631478,0.0345489443378119,0.0345489443378119,0.0,0.0,0.0345489443378119,0.0,0.0345489443378119,0.028790786948176585,0.0,0.0,0.0,0.0345489443378119
S7_D8 hbo,0.0,0.0,0.0,0.0,0.0,0.0,0.0,0.0,0.0,0.0,0.0,0.0,0.0,0.0,0.0,0.0,0.0,0.0,0.0,0.0,0.0,0.0,0.0,0.0,0.0,0.0,0.0,0.0,0.0,0.0,0.0,0.0,0.0,0.0,0.0,0.0,0.0,0.0,0.0,0.0,0.0,0.0,0.0,0.0,0.0,0.0,0.0,0.0,0.0,0.0,0.0,0.0
S8_D6 hbo,0.0,0.0,0.0,0.0,0.0,0.018005540166204988,0.019390581717451522,0.04155124653739612,0.0,0.0,0.004155124653739612,0.04293628808864266,0.024930747922437674,0.0,0.0332409972299169,0.03185595567867036,0.04293628808864266,0.0443213296398892,0.03185595567867036,0.0443213296398892,0.023545706371191136,0.024930747922437674,0.0,0.04293628808864266,0.01662049861495845,0.03185595567867036,0.023545706371191136,0.037396121883656507,0.036011080332409975,0.00554016620498615,0.0,0.0221606648199446,0.0221606648199446,0.03185595567867036,0.019390581717451522,0.0443213296398892,0.0,0.0,0.0,0.019390581717451522,0.04016620498614958,0.03185595567867036,0.0,0.0,0.0443213296398892,0.0,0.038781163434903045,0.030470914127423823,0.0,0.0,0.0,0.0332409972299169
S8_D8 hbo,0.0,0.0,0.0,0.0,0.0,0.031161473087818695,0.028328611898016998,0.0339943342776204,0.0,0.0,0.0056657223796034,0.0339943342776204,0.031161473087818695,0.0,0.0339943342776204,0.0339943342776204,0.0339943342776204,0.0339943342776204,0.0339943342776204,0.0339943342776204,0.028328611898016998,0.0339943342776204,0.0,0.0339943342776204,0.031161473087818695,0.0339943342776204,0.028328611898016998,0.0339943342776204,0.0339943342776204,0.0,0.0,0.025495750708215296,0.0226628895184136,0.0339943342776204,0.031161473087818695,0.0339943342776204,0.0,0.0,0.0,0.028328611898016998,0.0339943342776204,0.0339943342776204,0.0,0.0,0.0339943342776204,0.0,0.0339943342776204,0.028328611898016998,0.0,0.0,0.0,0.0339943342776204
S8_D15 hbo,0.0,0.0,0.0,0.0,0.0,0.02073365231259968,0.022328548644338118,0.03668261562998405,0.0,0.0,0.004784688995215311,0.03668261562998405,0.028708133971291867,0.0,0.03508771929824561,0.03508771929824561,0.03668261562998405,0.03668261562998405,0.03508771929824561,0.03668261562998405,0.02711323763955343,0.028708133971291867,0.0,0.03668261562998405,0.019138755980861243,0.03508771929824561,0.02711323763955343,0.03668261562998405,0.03668261562998405,0.006379585326953748,0.0,0.025518341307814992,0.025518341307814992,0.03668261562998405,0.022328548644338118,0.03668261562998405,0.0,0.0,0.0,0.022328548644338118,0.03668261562998405,0.03668261562998405,0.0,0.0,0.03668261562998405,0.0,0.03668261562998405,0.030303030303030304,0.0,0.0,0.0,0.03508771929824561
S9_D2 hbo,0.0,0.0,0.0,0.0,0.0,0.025590551181102362,0.027559055118110236,0.03346456692913386,0.0,0.0,0.005905511811023622,0.03346456692913386,0.03346456692913386,0.0,0.03346456692913386,0.03346456692913386,0.03346456692913386,0.03346456692913386,0.03346456692913386,0.03346456692913386,0.031496062992125984,0.03346456692913386,0.0,0.03346456692913386,0.023622047244094488,0.03346456692913386,0.031496062992125984,0.03346456692913386,0.03346456692913386,0.007874015748031496,0.0,0.02952755905511811,0.027559055118110236,0.03346456692913386,0.027559055118110236,0.03346456692913386,0.0,0.0,0.0,0.027559055118110236,0.03346456692913386,0.03346456692913386,0.0,0.0,0.03346456692913386,0.0,0.03346456692913386,0.031496062992125984,0.0,0.0,0.0,0.03346456692913386
S9_D9 hbo,0.0,0.0,0.0,0.0,0.0,0.01903367496339678,0.020497803806734993,0.03953147877013177,0.0,0.0,0.004392386530014641,0.03953147877013177,0.02635431918008785,0.0,0.03513909224011713,0.03367496339677892,0.03953147877013177,0.03953147877013177,0.03367496339677892,0.03953147877013177,0.024890190336749635,0.02635431918008785,0.0,0.03953147877013177,0.017569546120058566,0.03367496339677892,0.024890190336749635,0.03806734992679356,0.03806734992679356,0.005856515373352855,0.0,0.02342606149341142,0.02342606149341142,0.03367496339677892,0.020497803806734993,0.03953147877013177,0.0,0.0,0.0,0.020497803806734993,0.03953147877013177,0.03367496339677892,0.0,0.0,0.03953147877013177,0.0,0.03953147877013177,0.032210834553440704,0.0,0.0,0.0,0.03513909224011713
S9_D11 hbo,0.0,0.0,0.0,0.0,0.0,0.019402985074626865,0.020895522388059702,0.03880597014925373,0.0,0.0,0.004477611940298508,0.03880597014925373,0.026865671641791045,0.0,0.03582089552238806,0.034328358208955224,0.03880597014925373,0.03880597014925373,0.034328358208955224,0.03880597014925373,0.025373134328358207,0.026865671641791045,0.0,0.03880597014925373,0.01791044776119403,0.034328358208955224,0.025373134328358207,0.03731343283582089,0.03731343283582089,0.005970149253731343,0.0,0.023880597014925373,0.023880597014925373,0.034328358208955224,0.020895522388059702,0.03880597014925373,0.0,0.0,0.0,0.020895522388059702,0.03880597014925373,0.034328358208955224,0.0,0.0,0.03880597014925373,0.0,0.03880597014925373,0.03134328358208955,0.0,0.0,0.0,0.03582089552238806
S10_D9 hbo,0.0,0.0,0.0,0.0,0.0,0.01639344262295082,0.03278688524590164,0.03278688524590164,0.0,0.0,0.00819672131147541,0.03278688524590164,0.03278688524590164,0.0,0.03278688524590164,0.03278688524590164,0.03278688524590164,0.03278688524590164,0.03278688524590164,0.03278688524590164,0.03278688524590164,0.03278688524590164,0.0,0.03278688524590164,0.00819672131147541,0.03278688524590164,0.03278688524590164,0.03278688524590164,0.03278688524590164,0.02459016393442623,0.0,0.03278688524590164,0.03278688524590164,0.03278688524590164,0.02459016393442623,0.03278688524590164,0.0,0.0,0.0,0.03278688524590164,0.03278688524590164,0.03278688524590164,0.0,0.0,0.03278688524590164,0.0,0.03278688524590164,0.03278688524590164,0.0,0.0,0.0,0.03278688524590164
S10_D10 hbo,0.0,0.0,0.0,0.0,0.0,0.0,0.0,0.0,0.0,0.0,0.0,0.0,0.0,0.0,0.0,0.0,0.0,0.0,0.0,0.0,0.0,0.0,0.0,0.0,0.0,0.0,0.0,0.0,0.0,0.0,0.0,0.0,0.0,0.0,0.0,0.0,0.0,0.0,0.0,0.0,0.0,0.0,0.0,0.0,0.0,0.0,0.0,0.0,0.0,0.0,0.0,0.0
S10_D12 hbo,0.0,0.0,0.0,0.0,0.0,0.024793388429752067,0.028925619834710745,0.03305785123966942,0.0,0.0,0.006198347107438017,0.03305785123966942,0.03305785123966942,0.0,0.03305785123966942,0.03305785123966942,0.03305785123966942,0.03305785123966942,0.03305785123966942,0.03305785123966942,0.03305785123966942,0.03305785123966942,0.0,0.03305785123966942,0.022727272727272728,0.03305785123966942,0.03305785123966942,0.03305785123966942,0.03305785123966942,0.008264462809917356,0.0,0.030991735537190084,0.028925619834710745,0.03305785123966942,0.026859504132231406,0.03305785123966942,0.0,0.0,0.0,0.028925619834710745,0.03305785123966942,0.03305785123966942,0.0,0.0,0.03305785123966942,0.0,0.03305785123966942,0.03305785123966942,0.0,0.0,0.0,0.03305785123966942
S11_D9 hbo,0.0,0.0,0.0,0.0,0.0,0.022916666666666665,0.027083333333333334,0.03333333333333333,0.0,0.0,0.00625,0.03333333333333333,0.03333333333333333,0.0,0.03333333333333333,0.03333333333333333,0.03333333333333333,0.03333333333333333,0.03333333333333333,0.03333333333333333,0.03333333333333333,0.03125,0.0,0.03333333333333333,0.020833333333333332,0.03333333333333333,0.03333333333333333,0.03333333333333333,0.03333333333333333,0.008333333333333333,0.0,0.03333333333333333,0.03125,0.03333333333333333,0.025,0.03333333333333333,0.0,0.0,0.0,0.027083333333333334,0.03333333333333333,0.03333333333333333,0.0,0.0,0.03333333333333333,0.0,0.03333333333333333,0.03333333333333333,0.0,0.0,0.0,0.03333333333333333
S11_D11 hbo,0.0,0.0,0.0,0.0,0.0,0.0210016155088853,0.022617124394184167,0.03715670436187399,0.0,0.0,0.004846526655896607,0.03715670436187399,0.029079159935379646,0.0,0.033925686591276254,0.033925686591276254,0.03715670436187399,0.03715670436187399,0.03715670436187399,0.03715670436187399,0.027463651050080775,0.029079159935379646,0.0,0.03715670436187399,0.01938610662358643,0.033925686591276254,0.027463651050080775,0.035541195476575124,0.035541195476575124,0.006462035541195477,0.0,0.025848142164781908,0.025848142164781908,0.035541195476575124,0.022617124394184167,0.03715670436187399,0.0,0.0,0.0,0.022617124394184167,0.03715670436187399,0.035541195476575124,0.0,0.0,0.03715670436187399,0.0,0.03715670436187399,0.029079159935379646,0.0,0.0,0.0,0.033925686591276254
S11_D12 hbo,0.0,0.0,0.0,0.0,0.0,0.03125,0.028846153846153848,0.03365384615384615,0.0,0.0,0.007211538461538462,0.03365384615384615,0.03125,0.0,0.03365384615384615,0.03365384615384615,0.03365384615384615,0.03365384615384615,0.03365384615384615,0.03365384615384615,0.028846153846153848,0.03365384615384615,0.0,0.03365384615384615,0.028846153846153848,0.03365384615384615,0.028846153846153848,0.03365384615384615,0.03365384615384615,0.002403846153846154,0.0,0.026442307692307692,0.02403846153846154,0.03365384615384615,0.03125,0.03365384615384615,0.0,0.0,0.0,0.028846153846153848,0.03365384615384615,0.03365384615384615,0.0,0.0,0.03365384615384615,0.0,0.03365384615384615,0.028846153846153848,0.0,0.0,0.0,0.03365384615384615
S11_D13 hbo,0.0,0.0,0.0,0.0,0.0,0.017735334242837655,0.019099590723055934,0.040927694406548434,0.0,0.0,0.004092769440654843,0.04229195088676671,0.02455661664392906,0.0,0.03274215552523874,0.03137789904502047,0.04229195088676671,0.04638472032742155,0.03137789904502047,0.047748976807639835,0.023192360163710776,0.02455661664392906,0.0,0.04365620736698499,0.01637107776261937,0.03137789904502047,0.023192360163710776,0.036834924965893585,0.03547066848567531,0.005457025920873124,0.0,0.021828103683492497,0.021828103683492497,0.03137789904502047,0.019099590723055934,0.047748976807639835,0.0,0.0,0.0,0.019099590723055934,0.03956343792633015,0.03137789904502047,0.0,0.0,0.04638472032742155,0.0,0.03819918144611187,0.030013642564802184,0.0,0.0,0.0,0.03274215552523874
S12_D10 hbo,0.0,0.0,0.0,0.0,0.0,0.0,0.0,0.0,0.0,0.0,0.0,0.0,0.0,0.0,0.0,0.0,0.0,0.0,0.0,0.0,0.0,0.0,0.0,0.0,0.0,0.0,0.0,0.0,0.0,0.0,0.0,0.0,0.0,0.0,0.0,0.0,0.0,0.0,0.0,0.0,0.0,0.0,0.0,0.0,0.0,0.0,0.0,0.0,0.0,0.0,0.0,0.0
S12_D12 hbo,0.0,0.0,0.0,0.0,0.0,0.0,0.0,0.0,0.0,0.0,0.0,0.0,0.0,0.0,0.0,0.0,0.0,0.0,0.0,0.0,0.0,0.0,0.0,0.0,0.0,0.0,0.0,0.0,0.0,0.0,0.0,0.0,0.0,0.0,0.0,0.0,0.0,0.0,0.0,0.0,0.0,0.0,0.0,0.0,0.0,0.0,0.0,0.0,0.0,0.0,0.0,0.0
S12_D14 hbo,0.0,0.0,0.0,0.0,0.0,0.0,0.0,0.0,0.3333333333333333,0.0,0.0,0.0,0.0,0.0,0.0,0.0,0.0,0.0,0.0,0.0,0.0,0.0,0.0,0.0,0.0,0.0,0.0,0.0,0.0,0.0,0.0,0.0,0.0,0.0,0.0,0.0,0.0,0.0,0.6666666666666666,0.0,0.0,0.0,0.0,0.0,0.0,0.0,0.0,0.0,0.0,0.0,0.0,0.0
S13_D6 hbo,0.0,0.0,0.0,0.0,0.0,0.03051643192488263,0.03051643192488263,0.03286384976525822,0.0,0.0,0.007042253521126761,0.03286384976525822,0.03286384976525822,0.0,0.03286384976525822,0.03286384976525822,0.03286384976525822,0.03286384976525822,0.03286384976525822,0.03286384976525822,0.03051643192488263,0.03286384976525822,0.0,0.03286384976525822,0.028169014084507043,0.03286384976525822,0.03051643192488263,0.03286384976525822,0.03286384976525822,0.004694835680751174,0.0,0.028169014084507043,0.025821596244131457,0.03286384976525822,0.03286384976525822,0.03286384976525822,0.0,0.0,0.0,0.03051643192488263,0.03286384976525822,0.03286384976525822,0.0,0.0,0.03286384976525822,0.0,0.03286384976525822,0.03051643192488263,0.0,0.0,0.0,0.03286384976525822
S13_D11 hbo,0.0,0.0,0.0,0.0,0.0,0.01867816091954023,0.020114942528735632,0.041666666666666664,0.0,0.0,0.004310344827586207,0.041666666666666664,0.02586206896551724,0.0,0.034482758620689655,0.033045977011494254,0.041666666666666664,0.041666666666666664,0.033045977011494254,0.041666666666666664,0.02442528735632184,0.02586206896551724,0.0,0.041666666666666664,0.017241379310344827,0.033045977011494254,0.02442528735632184,0.035919540229885055,0.035919540229885055,0.005747126436781609,0.0,0.022988505747126436,0.022988505747126436,0.033045977011494254,0.020114942528735632,0.041666666666666664,0.0,0.0,0.0,0.020114942528735632,0.040229885057471264,0.033045977011494254,0.0,0.0,0.041666666666666664,0.0,0.03735632183908046,0.03017241379310345,0.0,0.0,0.0,0.034482758620689655
S13_D13 hbo,0.0,0.0,0.0,0.0,0.0,0.0210016155088853,0.022617124394184167,0.03715670436187399,0.0,0.0,0.004846526655896607,0.03715670436187399,0.029079159935379646,0.0,0.033925686591276254,0.033925686591276254,0.03715670436187399,0.03715670436187399,0.03715670436187399,0.03715670436187399,0.027463651050080775,0.029079159935379646,0.0,0.03715670436187399,0.01938610662358643,0.033925686591276254,0.027463651050080775,0.035541195476575124,0.035541195476575124,0.006462035541195477,0.0,0.025848142164781908,0.025848142164781908,0.035541195476575124,0.022617124394184167,0.03715670436187399,0.0,0.0,0.0,0.022617124394184167,0.03715670436187399,0.035541195476575124,0.0,0.0,0.03715670436187399,0.0,0.03715670436187399,0.029079159935379646,0.0,0.0,0.0,0.033925686591276254
S13_D15 hbo,0.0,0.0,0.0,0.0,0.0,0.0,0.0,0.0,0.0,0.0,0.0,0.0,0.0,0.0,0.0,0.0,0.0,0.0,0.0,0.0,0.0,0.0,0.0,0.0,0.0,0.0,0.0,0.0,0.0,0.0,0.0,0.0,0.0,0.0,0.0,0.0,0.0,0.0,0.0,0.0,0.0,0.0,0.0,0.0,0.0,0.0,0.0,0.0,0.0,0.0,0.0,0.0
S14_D12 hbo,0.0,0.0,0.0,0.0,0.0,0.0,0.0,0.0,0.0,0.0,0.0,0.0,0.0,0.0,0.0,0.0,0.0,0.0,0.0,0.0,0.0,0.0,0.0,0.0,0.0,0.0,0.0,0.0,0.0,0.0,0.0,0.0,0.0,0.0,0.0,0.0,0.0,0.0,0.0,0.0,0.0,0.0,0.0,0.0,0.0,0.0,0.0,0.0,0.0,0.0,0.0,0.0
S14_D13 hbo,0.0,0.0,0.0,0.0,0.0,0.017735334242837655,0.019099590723055934,0.040927694406548434,0.0,0.0,0.004092769440654843,0.04229195088676671,0.02455661664392906,0.0,0.03274215552523874,0.03137789904502047,0.04229195088676671,0.04638472032742155,0.03137789904502047,0.047748976807639835,0.023192360163710776,0.02455661664392906,0.0,0.04365620736698499,0.01637107776261937,0.03137789904502047,0.023192360163710776,0.036834924965893585,0.03547066848567531,0.005457025920873124,0.0,0.021828103683492497,0.021828103683492497,0.03137789904502047,0.019099590723055934,0.047748976807639835,0.0,0.0,0.0,0.019099590723055934,0.03956343792633015,0.03137789904502047,0.0,0.0,0.04638472032742155,0.0,0.03819918144611187,0.030013642564802184,0.0,0.0,0.0,0.03274215552523874
S14_D14 hbo,0.0,0.0,0.0,0.0,0.0,0.0,0.0,0.0,0.0,0.0,0.0,0.0,0.0,0.0,0.0,0.0,0.0,0.0,0.0,0.0,0.0,0.0,0.0,0.0,0.0,0.0,0.0,0.0,0.0,0.0,0.0,0.0,0.0,0.0,0.0,0.0,0.0,0.0,0.0,0.0,0.0,0.0,0.0,0.0,0.0,0.0,0.0,0.0,0.0,0.0,0.0,0.0
S14_D16 hbo,0.0,0.0,0.0,0.0,0.0,0.01878612716763006,0.02023121387283237,0.04046242774566474,0.0,0.0,0.004335260115606936,0.04046242774566474,0.02601156069364162,0.0,0.03468208092485549,0.033236994219653176,0.04046242774566474,0.04046242774566474,0.033236994219653176,0.04046242774566474,0.024566473988439308,0.02601156069364162,0.0,0.04046242774566474,0.017341040462427744,0.033236994219653176,0.024566473988439308,0.03757225433526012,0.03757225433526012,0.005780346820809248,0.0,0.023121387283236993,0.023121387283236993,0.033236994219653176,0.02023121387283237,0.04046242774566474,0.0,0.0,0.0,0.02023121387283237,0.04046242774566474,0.033236994219653176,0.0,0.0,0.04046242774566474,0.0,0.03901734104046243,0.031791907514450865,0.0,0.0,0.0,0.03468208092485549
S15_D13 hbo,0.0,0.0,0.0,0.0,0.0,0.021487603305785124,0.023140495867768594,0.03636363636363636,0.0,0.0,0.0049586776859504135,0.03636363636363636,0.02975206611570248,0.0,0.03636363636363636,0.03471074380165289,0.03636363636363636,0.03636363636363636,0.03140495867768595,0.03636363636363636,0.02809917355371901,0.02809917355371901,0.0,0.03636363636363636,0.019834710743801654,0.03471074380165289,0.02809917355371901,0.03636363636363636,0.03636363636363636,0.006611570247933884,0.0,0.026446280991735537,0.026446280991735537,0.03305785123966942,0.023140495867768594,0.03636363636363636,0.0,0.0,0.0,0.023140495867768594,0.03636363636363636,0.03305785123966942,0.0,0.0,0.03636363636363636,0.0,0.03636363636363636,0.03471074380165289,0.0,0.0,0.0,0.03636363636363636
S15_D15 hbo,0.0,0.0,0.0,0.0,0.0,0.0,0.0,0.0,0.0,0.0,0.0,0.0,0.0,0.0,0.0,0.0,0.0,0.0,0.0,0.0,0.0,0.0,0.0,0.0,0.0,0.0,0.0,0.0,0.0,0.0,0.0,0.0,0.0,0.0,0.0,0.0,0.0,0.0,0.0,0.0,0.0,0.0,0.0,0.0,0.0,0.0,0.0,0.0,0.0,0.0,0.0,0.0
S15_D16 hbo,0.0,0.0,0.0,0.0,0.0,0.0,0.0,0.0,0.0,0.0,0.0,0.0,0.0,0.0,0.0,0.0,0.0,0.0,0.0,0.0,0.0,0.0,0.0,0.0,0.0,0.0,0.0,0.0,0.0,0.0,0.0,0.0,0.0,0.0,0.0,0.0,0.0,0.0,0.0,0.0,0.0,0.0,0.0,0.0,0.0,0.0,0.0,0.0,0.0,0.0,0.0,0.0
S16_D14 hbo,0.0,0.0,0.0,0.0,0.0,0.0,0.0,0.0,0.0,0.0,0.0,0.0,0.0,0.0,0.0,0.0,0.0,0.0,0.0,0.0,0.0,0.0,0.0,0.0,0.0,0.0,0.0,0.0,0.0,0.0,0.0,0.0,0.0,0.0,0.0,0.0,0.0,0.0,0.0,0.0,0.0,0.0,0.0,0.0,0.0,0.0,0.0,0.0,0.0,0.0,0.0,0.0
S16_D16 hbo,0.0,0.0,0.0,0.0,0.0,0.020186335403726708,0.021739130434782608,0.037267080745341616,0.0,0.0,0.004658385093167702,0.037267080745341616,0.027950310559006212,0.0,0.03571428571428571,0.03571428571428571,0.037267080745341616,0.037267080745341616,0.034161490683229816,0.037267080745341616,0.026397515527950312,0.027950310559006212,0.0,0.037267080745341616,0.018633540372670808,0.03571428571428571,0.026397515527950312,0.037267080745341616,0.037267080745341616,0.006211180124223602,0.0,0.024844720496894408,0.024844720496894408,0.03571428571428571,0.021739130434782608,0.037267080745341616,0.0,0.0,0.0,0.021739130434782608,0.037267080745341616,0.03571428571428571,0.0,0.0,0.037267080745341616,0.0,0.037267080745341616,0.031055900621118012,0.0,0.0,0.0,0.03571428571428571
