,S1_D1 hbo,S1_D3 hbo,S2_D1 hbo,S2_D2 hbo,S2_D4 hbo,S3_D1 hbo,S3_D3 hbo,S3_D4 hbo,S3_D5 hbo,S4_D2 hbo,S4_D4 hbo,S4_D6 hbo,S4_D11 hbo,S5_D3 hbo,S5_D5 hbo,S5_D7 hbo,S6_D4 hbo,S6_D5 hbo,S6_D6 hbo,S6_D8 hbo,S7_D5 hbo,S7_D7 hbo,S7_D8 hbo,S8_D6 hbo,S8_D8 hbo,S8_D15 hbo,S9_D2 hbo,S9_D9 hbo,S9_D11 hbo,S10_D9 hbo,S10_D10 hbo,S10_D12 hbo,S11_D9 hbo,S11_D11 hbo,S11_D12 hbo,S11_D13 hbo,S12_D10 hbo,S12_D12 hbo,S12_D14 hbo,S13_D6 hbo,S13_D11 hbo,S13_D13 hbo,S13_D15 hbo,S14_D12 hbo,S14_D13 hbo,S14_D14 hbo,S14_D16 hbo,S15_D13 hbo,S15_D15 hbo,S15_D16 hbo,S16_D14 hbo,S16_D16 hbo
S1_D1 hbo,0.125,0.019230769230769232,0.0,0.0,0.0,0.014423076923076924,0.10576923076923077,0.0,0.0,0.0,0.0,0.0,0.0,0.019230769230769232,0.014423076923076924,0.0,0.014423076923076924,0.0,0.0,0.0,0.014423076923076924,0.014423076923076924,0.0,0.0,0.0,0.0,0.0,0.0,0.0,0.014423076923076924,0.0,0.0,0.0,0.0,0.0,0.0,0.1201923076923077,0.0,0.0,0.0,0.0,0.0,0.0,0.0,0.009615384615384616,0.014423076923076924,0.0,0.0,0.0,0.0,0.0,0.0
S1_D3 hbo,0.038461538461538464,0.3072649572649573,0.0,0.0,0.0,0.0,0.09444444444444444,0.0,0.0,0.0,0.0,0.0,0.0,0.3384615384615385,0.0,0.0,0.0,0.0,0.0,0.038461538461538464,0.0,0.0,0.0,0.0,0.0,0.0,0.0,0.0,0.0,0.0,0.0,0.0,0.0,0.0,0.0,0.0,0.0,0.07222222222222222,0.07222222222222222,0.0,0.0,0.0,0.038461538461538464,0.0,0.0,0.0,0.0,0.0,0.0,0.0,0.0,0.0
S2_D1 hbo,0.0,0.0,0.1169851445007114,0.09482811376466808,0.03432752474641616,0.0,0.0,0.0,0.0,0.09329437143337974,0.0664481434450683,0.0,0.04976439269923351,0.0,0.0,0.09204748864036227,0.0,0.012468827930174564,0.018703241895261846,0.02790569588299191,0.0,0.0370201796123189,0.0,0.014962593516209476,0.02579823447516179,0.025312485657023084,0.0,0.0,0.0,0.016209476309226933,0.0,0.0,0.05033811177577528,0.0,0.060301699738384104,0.0,0.0,0.0,0.058679987148692686,0.0,0.0,0.0,0.0,0.0,0.0,0.0,0.012269938650306749,0.00997506234413965,0.06126172299313067,0.0,0.0015337423312883436,0.019563820510074506
S2_D2 hbo,0.0,0.0,0.128784436826236,0.1425729351672105,0.016129032258064516,0.0,0.0,0.0,0.0,0.13875924166701087,0.0665881899412113,0.0,0.024926686217008796,0.0,0.0,0.13259813032643564,0.0,0.0,0.0,0.011730205278592375,0.0,0.06777910866961298,0.0,0.0,0.004398826979472141,0.01466275659824047,0.0,0.0,0.0,0.0,0.0,0.0,0.02785923753665689,0.0,0.04985337243401759,0.0,0.0,0.0,0.08213897264328887,0.0,0.0,0.0,0.0,0.0,0.0,0.0,0.011730205278592375,0.0,0.045454545454545456,0.0,0.001466275659824047,0.03256784106397918
S2_D4 hbo,0.0,0.0,0.055610568745776925,0.010700389105058366,0.08179943614716093,0.0,0.0,0.0,0.0,0.010700389105058366,0.062117011113958856,0.026264591439688716,0.08187516018546565,0.0,0.0,0.010700389105058366,0.0,0.04422866329597614,0.03293413173652695,0.036749458281879824,0.0,0.0,0.0,0.029940119760479042,0.04491017964071856,0.030761434329784013,0.0,0.0,0.0,0.02694610778443114,0.0,0.0311284046692607,0.050746755516204944,0.0311284046692607,0.037646496889489504,0.0048638132295719845,0.0,0.02821011673151751,0.0311284046692607,0.0,0.0311284046692607,0.0311284046692607,0.0,0.0,0.0,0.0,0.027237354085603113,0.055080500477643936,0.04363452084158531,0.0,0.009727626459143969,0.0009727626459143969
S3_D1 hbo,0.006993006993006993,0.0,0.0,0.0,0.0,0.0979020979020979,0.0,0.0,0.0,0.0,0.0,0.0,0.0,0.0,0.013986013986013986,0.0,0.01048951048951049,0.0,0.0,0.0,0.07342657342657342,0.013986013986013986,0.0,0.0,0.0,0.0,0.0,0.06993006993006994,0.09090909090909091,0.013986013986013986,0.0,0.0,0.0,0.0,0.0,0.0,0.013986013986013986,0.0,0.0,0.0,0.0,0.0,0.07342657342657342,0.0,0.006993006993006993,0.013986013986013986,0.0,0.0,0.0,0.0,0.0,0.0
S3_D3 hbo,0.13068181818181818,0.09908841158841158,0.0,0.0,0.0,0.0,0.4074675324675324,0.0,0.0,0.0,0.0,0.0,0.0,0.09908841158841158,0.0,0.0,0.0,0.0,0.0,0.0,0.0,0.0,0.0,0.0,0.0,0.0,0.0,0.0,0.0,0.0,0.0,0.0,0.0,0.0,0.0,0.0,0.16477272727272727,0.04945054945054945,0.04945054945054945,0.0,0.0,0.0,0.0,0.0,0.0,0.0,0.0,0.0,0.0,0.0,0.0,0.0
S3_D4 hbo,0.05,0.0,0.0,0.0,0.0,0.05,0.0,0.05454545454545454,0.051515151515151514,0.0,0.0,0.0,0.0,0.0,0.08939393939393939,0.0,0.09242424242424244,0.0,0.045454545454545456,0.0,0.10757575757575757,0.05,0.05757575757575758,0.05757575757575758,0.0,0.0,0.05757575757575758,0.0,0.0,0.05,0.0,0.0,0.0,0.0,0.0,0.03636363636363636,0.05,0.0,0.0,0.0,0.0,0.0,0.0,0.0,0.05,0.05,0.0,0.0,0.0,0.0,0.0,0.0
S3_D5 hbo,0.0,0.0,0.0,0.0,0.0,0.0,0.0,0.05621301775147929,0.21575443786982249,0.0,0.0,0.0,0.0,0.0,0.038461538461538464,0.0,0.04437869822485207,0.175,0.047337278106508875,0.0,0.05621301775147929,0.0,0.05621301775147929,0.05621301775147929,0.0,0.0,0.05621301775147929,0.0,0.0,0.0,0.0,0.0,0.0,0.0,0.0,0.03550295857988166,0.0,0.0,0.0,0.0,0.0,0.0,0.0,0.1625,0.0,0.0,0.0,0.0,0.0,0.0,0.0,0.0
S4_D2 hbo,0.0,0.0,0.11689814814814814,0.12506613756613758,0.020072751322751325,0.0,0.0,0.0,0.0,0.13468915343915344,0.0601521164021164,0.0,0.03455687830687831,0.0,0.0,0.11653439153439152,0.0,0.0,0.0,0.011904761904761904,0.0,0.05297619047619048,0.0,0.0,0.014087301587301588,0.013392857142857142,0.0,0.0,0.0,0.0,0.0,0.0,0.04308862433862434,0.0,0.06541005291005292,0.0,0.0,0.0,0.07275132275132275,0.0,0.0,0.005555555555555556,0.0,0.0,0.0,0.0,0.011904761904761904,0.014814814814814815,0.05945767195767196,0.0,0.001488095238095238,0.0251984126984127
S4_D4 hbo,0.0,0.0,0.07561274509803922,0.05269607843137255,0.04926470588235294,0.0,0.0,0.0,0.0,0.0517156862745098,0.08713235294117647,0.018627450980392157,0.05821078431372549,0.0,0.0,0.0517156862745098,0.0,0.031127450980392157,0.022916666666666665,0.024754901960784313,0.0,0.031127450980392157,0.0,0.020833333333333332,0.024877450980392155,0.025490196078431372,0.0,0.0,0.0,0.01875,0.0,0.018627450980392157,0.03958333333333333,0.018627450980392157,0.031985294117647056,0.004901960784313725,0.0,0.018627450980392157,0.06127450980392157,0.0,0.018627450980392157,0.018627450980392157,0.0,0.0,0.0,0.0,0.026470588235294117,0.02696078431372549,0.03811274509803922,0.0,0.00784313725490196,0.024877450980392155
S4_D6 hbo,0.0,0.0,0.0,0.0,0.038356164383561646,0.0,0.0,0.0,0.0,0.0,0.026027397260273973,0.036986301369863014,0.038356164383561646,0.0,0.0,0.0,0.0,0.036986301369863014,0.0,0.005479452054794521,0.0,0.0,0.0,0.0,0.0,0.0,0.0,0.0,0.0,0.0,0.0,0.038356164383561646,0.0,0.038356164383561646,0.0,0.00684931506849315,0.0,0.038356164383561646,0.028767123287671233,0.0,0.038356164383561646,0.038356164383561646,0.0,0.0,0.0,0.0,0.036986301369863014,0.038356164383561646,0.0,0.0,0.0136986301369863,0.0013698630136986301
S4_D11 hbo,0.0,0.0,0.04667832167832167,0.01486013986013986,0.05506993006993007,0.0,0.0,0.0,0.0,0.019405594405594404,0.048135198135198135,0.0236013986013986,0.10233100233100233,0.0,0.0,0.01486013986013986,0.0,0.03875291375291375,0.022727272727272728,0.026223776223776224,0.0,0.0,0.025757575757575757,0.01818181818181818,0.030303030303030304,0.017365967365967367,0.0,0.0,0.0,0.019696969696969695,0.030303030303030304,0.05588578088578089,0.04428904428904429,0.027097902097902096,0.04364801864801865,0.004370629370629371,0.0,0.025349650349650348,0.03146853146853147,0.0,0.054370629370629364,0.027097902097902096,0.0,0.0,0.0,0.0,0.030594405594405596,0.04376456876456876,0.048193473193473196,0.0,0.008741258741258742,0.0008741258741258741
S5_D3 hbo,0.022727272727272728,0.24007314524555906,0.0,0.0,0.0,0.0,0.09770114942528736,0.0,0.0,0.0,0.0,0.0,0.0,0.3576280041797283,0.0,0.0,0.0,0.0,0.0,0.06060606060606061,0.0,0.0,0.0,0.0,0.0,0.0,0.0,0.0,0.0,0.0,0.0,0.0,0.0,0.0,0.0,0.0,0.0,0.06896551724137931,0.06896551724137931,0.0,0.0,0.0,0.08333333333333333,0.0,0.0,0.0,0.0,0.0,0.0,0.0,0.0,0.0
S5_D5 hbo,0.007042253521126761,0.0,0.0,0.0,0.0,0.01056338028169014,0.0,0.05078125,0.05078125,0.0,0.0,0.0,0.0,0.0,0.14898767605633803,0.0,0.06134463028169014,0.0,0.05078125,0.0,0.11064040492957747,0.0528169014084507,0.05078125,0.05078125,0.0,0.0,0.05078125,0.0,0.0,0.028169014084507043,0.0,0.0528169014084507,0.05985915492957746,0.0,0.0,0.046875,0.03169014084507042,0.0,0.0,0.0,0.0,0.0,0.0,0.0,0.007042253521126761,0.017605633802816902,0.0,0.0,0.0,0.0,0.05985915492957746,0.0
S5_D7 hbo,0.0,0.0,0.1306547619047619,0.13988095238095238,0.01636904761904762,0.0,0.0,0.0,0.0,0.13839285714285715,0.06755952380952382,0.0,0.025297619047619048,0.0,0.0,0.13452380952380952,0.0,0.0,0.0,0.011904761904761904,0.0,0.06726190476190476,0.0,0.0,0.002976190476190476,0.013392857142857142,0.0,0.0,0.0,0.0,0.0,0.0,0.028273809523809524,0.0,0.050595238095238096,0.0,0.0,0.0,0.08333333333333333,0.0,0.0,0.0,0.0,0.0,0.0,0.0,0.011904761904761904,0.0,0.044642857142857144,0.0,0.001488095238095238,0.03154761904761905
S6_D4 hbo,0.029411764705882353,0.0,0.0,0.0,0.0,0.04411764705882353,0.0,0.052083333333333336,0.052083333333333336,0.0,0.0,0.0,0.0,0.0,0.10396241830065359,0.0,0.09272875816993464,0.0,0.052083333333333336,0.0,0.11090686274509803,0.058823529411764705,0.052083333333333336,0.052083333333333336,0.0,0.0,0.052083333333333336,0.0,0.0,0.058823529411764705,0.0,0.0,0.0,0.0,0.0,0.041666666666666664,0.058823529411764705,0.0,0.0,0.0,0.0,0.0,0.0,0.0,0.029411764705882353,0.058823529411764705,0.0,0.0,0.0,0.0,0.0,0.0
S6_D5 hbo,0.0,0.0,0.036231884057971016,0.0,0.052848918006750054,0.0,0.0,0.0,0.050724637681159424,0.0,0.04052015088346238,0.036986301369863014,0.07096486003573556,0.0,0.0,0.0,0.0,0.14205876513797894,0.03260869565217391,0.041711336112765535,0.0,0.0,0.0,0.025362318840579712,0.025362318840579712,0.010869565217391304,0.0,0.0,0.0,0.03260869565217391,0.0,0.038356164383561646,0.025362318840579712,0.038356164383561646,0.0,0.00684931506849315,0.0,0.038356164383561646,0.028767123287671233,0.0,0.038356164383561646,0.038356164383561646,0.0,0.05434782608695652,0.0,0.0,0.036986301369863014,0.038356164383561646,0.0036231884057971015,0.0,0.0136986301369863,0.0013698630136986301
S6_D6 hbo,0.0,0.0,0.03275109170305677,0.0,0.019650655021834062,0.0,0.0,0.0480225988700565,0.05084745762711865,0.0,0.019650655021834062,0.0,0.03056768558951965,0.0,0.03672316384180791,0.0,0.0423728813559322,0.021834061135371178,0.12418276466089359,0.03275109170305677,0.059322033898305086,0.005649717514124294,0.059322033898305086,0.08269804850368835,0.026200873362445413,0.017467248908296942,0.05084745762711865,0.0,0.0,0.028384279475982533,0.0,0.0,0.05021834061135371,0.0,0.008733624454148471,0.03389830508474576,0.0,0.0,0.0,0.024017467248908297,0.0,0.0,0.0,0.0,0.0,0.0,0.028384279475982533,0.019650655021834062,0.013100436681222707,0.0,0.03275109170305677,0.0
S6_D8 hbo,0.0,0.005988023952095809,0.06840623388983622,0.029801324503311258,0.05706467858984019,0.0,0.0,0.0,0.0,0.029801324503311258,0.0504421620335488,0.016556291390728478,0.05878970535749693,0.023952095808383235,0.0,0.029801324503311258,0.0,0.04649641115120752,0.038922155688622756,0.10260935083475434,0.0,0.0,0.0,0.03293413173652695,0.03293413173652695,0.024269342110481023,0.0,0.0,0.0,0.038922155688622756,0.0,0.016556291390728478,0.03293413173652695,0.016556291390728478,0.03878336043145497,0.0,0.0,0.016556291390728478,0.046357615894039736,0.0,0.016556291390728478,0.016556291390728478,0.020958083832335328,0.0,0.0,0.0,0.016556291390728478,0.022544315342824285,0.031526351270968,0.0,0.016556291390728478,0.0033112582781456954
S7_D5 hbo,0.005780346820809248,0.0,0.0,0.0,0.0,0.057803468208092484,0.0,0.04871794871794872,0.04871794871794872,0.0,0.0,0.0,0.0,0.0,0.08535645472061656,0.0,0.04713205869275233,0.0,0.05128205128205128,0.0,0.15691418408181412,0.048480806284274494,0.0641025641025641,0.06153846153846154,0.0,0.0,0.05641025641025641,0.03757225433526012,0.049132947976878616,0.023121387283236993,0.0,0.008670520231213872,0.017341040462427744,0.0,0.0,0.03076923076923077,0.02601156069364162,0.0,0.0,0.0,0.0,0.0,0.04046242774566474,0.0,0.005780346820809248,0.014450867052023121,0.0,0.0,0.0,0.0,0.014450867052023121,0.0
S7_D7 hbo,0.003745318352059925,0.0,0.06780317706315381,0.06780317706315381,0.0,0.0056179775280898875,0.0,0.0,0.0,0.059182487407981405,0.03483791811959189,0.0,0.0,0.0,0.0299625468164794,0.059182487407981405,0.0056179775280898875,0.0,0.034482758620689655,0.0,0.06444530543716906,0.18884799173446984,0.0603448275862069,0.017241379310344827,0.0603448275862069,0.034482758620689655,0.0,0.0,0.0,0.0149812734082397,0.0,0.0018726591760299626,0.00749063670411985,0.0,0.0,0.0,0.016853932584269662,0.0,0.03745318352059925,0.0,0.0,0.0,0.0,0.0,0.003745318352059925,0.009363295880149813,0.0,0.0,0.04310344827586207,0.0,0.014238667183262301,0.056954668733049205
S7_D8 hbo,0.0,0.0,0.0,0.0,0.0,0.0,0.0,0.04589371980676329,0.04589371980676329,0.0,0.0,0.0,0.07364341085271318,0.0,0.03140096618357488,0.0,0.036231884057971016,0.0,0.050724637681159424,0.0,0.06038647342995169,0.012077294685990338,0.15385911695315135,0.06280193236714976,0.0,0.0,0.05314009661835749,0.0,0.0,0.0,0.08527131782945736,0.08527131782945736,0.0,0.0,0.04263565891472868,0.028985507246376812,0.0,0.0,0.0,0.0,0.08527131782945736,0.0,0.0,0.0,0.0,0.0,0.0,0.0,0.046511627906976744,0.0,0.0,0.0
S8_D6 hbo,0.0,0.0,0.044444444444444446,0.0,0.02962962962962963,0.0,0.0,0.05,0.05,0.0,0.02962962962962963,0.0,0.044444444444444446,0.0,0.034210526315789476,0.0,0.039473684210526314,0.03333333333333333,0.09181286549707603,0.044444444444444446,0.05789473684210526,0.0,0.06578947368421052,0.10653021442495127,0.040740740740740744,0.025925925925925925,0.05789473684210526,0.0,0.0,0.044444444444444446,0.0,0.0,0.040740740740740744,0.0,0.011111111111111112,0.031578947368421054,0.0,0.0,0.0,0.0,0.0,0.0,0.0,0.0,0.0,0.0,0.0,0.007407407407407408,0.018518518518518517,0.0,0.0,0.0
S8_D8 hbo,0.0,0.0,0.04406977020508068,0.005917159763313609,0.030120481927710843,0.0,0.0,0.0,0.0,0.010990708395713028,0.025046933295311425,0.0,0.04417670682730924,0.0,0.0,0.0029585798816568047,0.0,0.018072289156626505,0.028112449799196786,0.02610441767068273,0.0,0.023668639053254437,0.0029585798816568047,0.024096385542168676,0.20954825218031892,0.07523585466124855,0.0,0.06340153513462132,0.047337278106508875,0.024096385542168676,0.0,0.0,0.04216867469879518,0.0,0.02610441767068273,0.0,0.0,0.0,0.0,0.0,0.0,0.0,0.0,0.047337278106508875,0.047337278106508875,0.0,0.0,0.024096385542168676,0.044913381335994866,0.047337278106508875,0.0029585798816568047,0.011834319526627219
S8_D15 hbo,0.0,0.0,0.0548406862745098,0.015625,0.04963235294117647,0.0,0.0,0.0,0.0,0.013888888888888888,0.05310457516339869,0.0,0.05136846405228758,0.0,0.0,0.013888888888888888,0.0,0.024509803921568627,0.0392156862745098,0.0392156862745098,0.0,0.008680555555555556,0.0,0.0392156862745098,0.07567401960784315,0.12806372549019607,0.0,0.03993055555555555,0.03993055555555555,0.0392156862745098,0.0,0.0,0.04963235294117647,0.0,0.026858660130718956,0.0,0.0,0.0,0.012152777777777778,0.0,0.0,0.0,0.03993055555555555,0.03993055555555555,0.03993055555555555,0.0,0.001736111111111111,0.00980392156862745,0.04534313725490196,0.0,0.001736111111111111,0.006944444444444444
S9_D2 hbo,0.0,0.0,0.0,0.0,0.0,0.0,0.0,0.05337078651685393,0.05056179775280899,0.0,0.0,0.0,0.0,0.0,0.03651685393258427,0.0,0.042134831460674156,0.0,0.0449438202247191,0.0,0.056179775280898875,0.0,0.06179775280898876,0.06179775280898876,0.0,0.0,0.05898876404494382,0.0,0.0,0.0,0.0,0.0,0.0,0.0,0.0,0.033707865168539325,0.0,0.0,0.0,0.0,0.0,0.0,0.0,0.0,0.0,0.0,0.0,0.0,0.0,0.0,0.0,0.0
S9_D9 hbo,0.0038461538461538464,0.0,0.0,0.0,0.0,0.08846153846153847,0.0,0.0,0.0,0.0,0.0,0.0,0.0,0.0,0.0038461538461538464,0.0,0.0038461538461538464,0.0,0.0,0.0,0.06153846153846154,0.0038461538461538464,0.0,0.0,0.08446050593701601,0.0738255033557047,0.0,0.218921011874032,0.17570986060918947,0.0038461538461538464,0.0,0.0,0.0,0.0,0.0,0.0,0.0038461538461538464,0.0,0.0,0.0,0.0,0.0,0.08846153846153847,0.09060402684563758,0.09109447599380485,0.0038461538461538464,0.0,0.0,0.0,0.0,0.0,0.0
S9_D11 hbo,0.0038461538461538464,0.0,0.0,0.0,0.0,0.10384615384615385,0.0,0.0,0.0,0.0,0.0,0.0,0.0,0.0,0.0038461538461538464,0.0,0.0038461538461538464,0.0,0.0,0.0,0.06923076923076923,0.0038461538461538464,0.0,0.0,0.05555555555555555,0.0763888888888889,0.0,0.17836538461538462,0.21335470085470087,0.0038461538461538464,0.0,0.0,0.0,0.0,0.0,0.0,0.0038461538461538464,0.0,0.0,0.0,0.0,0.0,0.08846153846153847,0.09375,0.09412393162393162,0.0038461538461538464,0.0,0.0,0.0,0.0,0.0,0.0
S10_D9 hbo,0.005319148936170213,0.0,0.034574468085106384,0.0,0.018617021276595744,0.007978723404255319,0.0,0.0,0.0,0.0,0.018617021276595744,0.0,0.031914893617021274,0.0,0.023936170212765957,0.0,0.007978723404255319,0.026595744680851064,0.031914893617021274,0.034574468085106384,0.023936170212765957,0.023936170212765957,0.0,0.026595744680851064,0.026595744680851064,0.015957446808510637,0.0,0.0,0.0,0.05319148936170213,0.0,0.0,0.026595744680851064,0.0,0.005319148936170213,0.0,0.023936170212765957,0.0,0.0,0.0,0.0,0.0,0.0,0.0,0.005319148936170213,0.013297872340425532,0.0,0.0026595744680851063,0.010638297872340425,0.0,0.0,0.0
S10_D10 hbo,0.0,0.0,0.0,0.0,0.0,0.0,0.0,0.0,0.0,0.0,0.0,0.0,0.06666666666666667,0.0,0.0,0.0,0.0,0.0,0.0,0.0,0.0,0.0,0.07333333333333333,0.0,0.0,0.0,0.0,0.0,0.0,0.0,0.09666666666666666,0.08666666666666667,0.0,0.0,0.03666666666666667,0.0,0.0,0.0,0.0,0.0,0.08666666666666667,0.0,0.0,0.0,0.0,0.0,0.0,0.0,0.05333333333333334,0.0,0.0,0.0
S10_D12 hbo,0.0,0.0,0.0,0.0,0.038461538461538464,0.0,0.0,0.0,0.0,0.0,0.02357320099255583,0.033498759305210915,0.08553002241641793,0.0,0.03140096618357488,0.0,0.0,0.033498759305210915,0.0,0.004962779156327543,0.0024154589371980675,0.0,0.05314009661835749,0.0,0.0,0.0,0.0,0.0,0.0,0.0,0.06280193236714976,0.1557101928770933,0.03140096618357488,0.043424317617866005,0.026570048309178744,0.00620347394540943,0.0,0.03598014888337469,0.026054590570719603,0.0,0.09891394253245586,0.043424317617866005,0.0,0.0,0.0,0.0,0.033498759305210915,0.043424317617866005,0.033816425120772944,0.0,0.05105429088598794,0.0012406947890818859
S11_D9 hbo,0.0,0.0,0.07574525745257453,0.05,0.030851519041506202,0.0,0.0,0.0,0.0,0.05948509485094851,0.054378833262016826,0.0,0.06665240336613892,0.0,0.02168021680216802,0.05,0.0,0.012195121951219513,0.032520325203252036,0.017615176151761516,0.005420054200542005,0.0027100271002710027,0.0,0.016260162601626018,0.02981029810298103,0.021366424190557697,0.0,0.0,0.0,0.016260162601626018,0.0,0.02032520325203252,0.11511909855940664,0.0,0.07168021680216802,0.0,0.0,0.0,0.034210526315789476,0.014905149051490514,0.0,0.0040650406504065045,0.0,0.0,0.0,0.0,0.035957780630437884,0.028455284552845527,0.07439024390243903,0.0,0.037940379403794036,0.0
S11_D11 hbo,0.0,0.0,0.0,0.0,0.038366336633663366,0.0,0.0,0.0,0.0,0.0,0.023514851485148515,0.03341584158415842,0.03712871287128713,0.0,0.0,0.0,0.0,0.03341584158415842,0.0,0.0049504950495049506,0.0,0.0,0.0,0.0,0.0,0.0,0.0,0.0,0.0,0.0,0.0,0.04207920792079208,0.0,0.1544279427942794,0.05555555555555555,0.06174367436743674,0.0,0.147002200220022,0.02599009900990099,0.0,0.04084158415841584,0.21122112211221122,0.0,0.0,0.0,0.0,0.03341584158415842,0.043316831683168314,0.0,0.0,0.012376237623762377,0.0012376237623762376
S11_D12 hbo,0.0,0.0,0.07063086974275214,0.054838709677419356,0.03514699877501021,0.0,0.0,0.0,0.0,0.0643323805634953,0.04655982033483054,0.0,0.06381175990200082,0.0,0.0,0.054838709677419356,0.0,0.0015822784810126582,0.00949367088607595,0.019201714985708454,0.0,0.0,0.01740506329113924,0.007911392405063292,0.023734177215189875,0.019201714985708454,0.0,0.0,0.0,0.006329113924050633,0.01740506329113924,0.01740506329113924,0.05596161698652511,0.0031645569620253164,0.1101878317680686,0.0015822784810126582,0.0,0.00949367088607595,0.05450183748468762,0.0,0.01740506329113924,0.006329113924050633,0.0,0.01740506329113924,0.01740506329113924,0.014240506329113924,0.030308289097590854,0.022151898734177215,0.08788280930992241,0.0,0.004746835443037975,0.01740506329113924
S11_D13 hbo,0.0,0.0,0.0,0.0,0.013513513513513514,0.0,0.0,0.032432432432432434,0.032432432432432434,0.0,0.010810810810810811,0.013513513513513514,0.013513513513513514,0.0,0.02972972972972973,0.0,0.032432432432432434,0.013513513513513514,0.032432432432432434,0.0,0.032432432432432434,0.0,0.032432432432432434,0.032432432432432434,0.0,0.0,0.032432432432432434,0.0,0.0,0.0,0.0,0.013513513513513514,0.0,0.13851351351351351,0.0625,0.10304054054054054,0.0,0.13851351351351351,0.010810810810810811,0.0,0.013513513513513514,0.13851351351351351,0.0,0.0,0.0,0.0,0.013513513513513514,0.013513513513513514,0.0,0.0,0.0,0.0
S12_D10 hbo,0.0851063829787234,0.0,0.0,0.0,0.0,0.010638297872340425,0.10283687943262411,0.0,0.0,0.0,0.0,0.0,0.0,0.0,0.03546099290780142,0.0,0.010638297872340425,0.0,0.0,0.0,0.03546099290780142,0.03546099290780142,0.0,0.0,0.0,0.0,0.0,0.0,0.0,0.028368794326241134,0.0,0.0,0.0,0.0,0.0,0.0,0.13120567375886524,0.0,0.0,0.0,0.0,0.0,0.0,0.0,0.0070921985815602835,0.01773049645390071,0.0,0.0,0.0,0.0,0.0,0.0
S12_D12 hbo,0.0,0.01473922902494331,0.0,0.0,0.034013605442176874,0.0,0.012471655328798186,0.0,0.0,0.0,0.021541950113378686,0.030612244897959183,0.034013605442176874,0.01473922902494331,0.0,0.0,0.0,0.030612244897959183,0.0,0.0045351473922902496,0.0,0.0,0.0,0.0,0.0,0.0,0.0,0.0,0.0,0.0,0.0,0.034013605442176874,0.0,0.044539921231650556,0.03684210526315789,0.010932092135099655,0.0,0.1412221028762382,0.09530970282849982,0.0,0.034013605442176874,0.0498030791263874,0.0,0.042105263157894736,0.06842105263157895,0.06842105263157895,0.08850698174006444,0.034013605442176874,0.0,0.0,0.016601026375462465,0.03797589211123045
S12_D14 hbo,0.0,0.012,0.05707878787878788,0.05787878787878788,0.0264,0.0,0.0088,0.0,0.0,0.05787878787878788,0.05851515151515152,0.0176,0.0312,0.0112,0.0,0.05787878787878788,0.0,0.0176,0.0,0.0096,0.0,0.03787878787878788,0.0,0.0,0.0,0.0056,0.0,0.0,0.0,0.0,0.0,0.0176,0.012,0.0176,0.04083333333333333,0.004,0.0,0.04504545454545454,0.12106363636363637,0.0,0.0176,0.0176,0.0,0.026515151515151516,0.032196969696969696,0.026515151515151516,0.0561969696969697,0.0176,0.0168,0.0,0.013681818181818182,0.05004242424242424
S13_D6 hbo,0.0,0.0,0.0,0.0,0.0,0.0,0.0,0.0,0.0,0.0,0.0,0.0,0.0,0.0,0.0,0.0,0.0,0.0,0.08035714285714286,0.0,0.0,0.0,0.0,0.0,0.0,0.0,0.0,0.0,0.0,0.0,0.0,0.0,0.08035714285714286,0.0,0.0,0.0,0.0,0.0,0.0,0.33214285714285713,0.0,0.0,0.0,0.0,0.0,0.0,0.09821428571428571,0.05357142857142857,0.0,0.0,0.09821428571428571,0.2571428571428571
S13_D11 hbo,0.0,0.0,0.0,0.0,0.03875,0.0,0.0,0.0,0.0,0.0,0.02375,0.03375,0.10506756756756758,0.0,0.0,0.0,0.0,0.03375,0.0,0.005,0.0,0.0,0.07432432432432433,0.0,0.0,0.0,0.0,0.0,0.0,0.0,0.09121621621621621,0.13033783783783784,0.0,0.0425,0.037162162162162164,0.00625,0.0,0.03625,0.02625,0.0,0.12908783783783784,0.0425,0.0,0.0,0.0,0.0,0.03375,0.0425,0.05405405405405406,0.0,0.0125,0.00125
S13_D13 hbo,0.0,0.0,0.0,0.0,0.038366336633663366,0.0,0.0,0.0,0.0,0.04878048780487805,0.023514851485148515,0.03341584158415842,0.04932383482250664,0.0,0.0,0.0,0.0,0.03341584158415842,0.0,0.0049504950495049506,0.0,0.0,0.0,0.0,0.024390243902439025,0.0,0.0,0.0,0.0,0.0,0.0,0.04207920792079208,0.04878048780487805,0.06770707558560735,0.06097560975609756,0.018383240763100703,0.0,0.060281333011349914,0.02599009900990099,0.0,0.04084158415841584,0.1908959188601787,0.0,0.0,0.0,0.0,0.03341584158415842,0.09209731948804636,0.04878048780487805,0.0,0.012376237623762377,0.0012376237623762376
S13_D15 hbo,0.0,0.01056338028169014,0.0,0.0,0.0,0.08098591549295775,0.0,0.0,0.0,0.0,0.0,0.0,0.0,0.04225352112676056,0.0,0.0,0.0,0.0,0.0,0.028169014084507043,0.056338028169014086,0.0,0.0,0.0,0.0,0.2391304347826087,0.0,0.07746478873239436,0.08450704225352113,0.0,0.0,0.0,0.0,0.0,0.0,0.0,0.0,0.0,0.0,0.0,0.0,0.0,0.38058787507654623,0.0,0.0,0.0,0.0,0.0,0.0,0.0,0.0,0.0
S14_D12 hbo,0.0,0.0,0.0,0.0,0.0,0.0,0.0,0.0,0.04487179487179487,0.0,0.0,0.0,0.0,0.0,0.0,0.0,0.0,0.05128205128205128,0.0,0.0,0.0,0.0,0.0,0.0,0.05517241379310345,0.07586206896551724,0.0,0.09655172413793103,0.0896551724137931,0.0,0.0,0.0,0.0,0.0,0.035256410256410256,0.0,0.0,0.019230769230769232,0.041666666666666664,0.0,0.0,0.0,0.0,0.22130857648099028,0.13452696728558797,0.035256410256410256,0.04487179487179487,0.0,0.0,0.0,0.009615384615384616,0.04487179487179487
S14_D13 hbo,0.006289308176100629,0.0,0.0,0.0,0.0,0.009433962264150943,0.0,0.0,0.0,0.0,0.0,0.0,0.0,0.0,0.009433962264150943,0.0,0.009433962264150943,0.0,0.0,0.0,0.009433962264150943,0.009433962264150943,0.0,0.0,0.05755395683453238,0.07553956834532374,0.0,0.09352517985611511,0.08992805755395683,0.009433962264150943,0.0,0.0,0.0,0.0,0.03459119496855346,0.0,0.009433962264150943,0.03459119496855346,0.05345911949685535,0.0,0.0,0.0,0.0,0.1375503370888195,0.16225510157911405,0.059748427672955975,0.0660377358490566,0.0,0.0,0.0,0.009433962264150943,0.05345911949685535
S14_D14 hbo,0.00625,0.0,0.0,0.0,0.0,0.009375,0.0,0.0,0.0,0.0,0.0,0.0,0.0,0.0,0.01875,0.0,0.009375,0.0,0.0,0.0,0.01875,0.01875,0.0,0.0,0.0,0.0,0.0,0.0,0.0,0.01875,0.0,0.0,0.0,0.0,0.034375,0.0,0.01875,0.034375,0.05,0.0,0.0,0.0,0.0,0.040625,0.059375,0.065625,0.05,0.0,0.0,0.0,0.009375,0.0375
S14_D16 hbo,0.0,0.0,0.008733624454148471,0.008733624454148471,0.03056768558951965,0.0,0.0,0.0,0.0,0.008733624454148471,0.02947598253275109,0.02947598253275109,0.039301310043668124,0.0,0.0,0.008733624454148471,0.0,0.02947598253275109,0.02763819095477387,0.004366812227074236,0.0,0.0,0.0,0.0,0.0,0.0,0.0,0.0,0.0,0.0,0.0,0.03056768558951965,0.03637181540892234,0.03056768558951965,0.03637181540892234,0.0054585152838427945,0.0,0.05318075091615282,0.07186039367141384,0.02763819095477387,0.03056768558951965,0.03056768558951965,0.0,0.035175879396984924,0.04773869346733668,0.035175879396984924,0.14668319764762677,0.04564306247394176,0.008733624454148471,0.0,0.05865572403502227,0.04380527089596454
S15_D13 hbo,0.0,0.0,0.027932960893854747,0.0,0.06629929752751812,0.0,0.0,0.0,0.0,0.019553072625698324,0.04027462802146137,0.03341584158415842,0.0734415620332983,0.0,0.0,0.0,0.0,0.03341584158415842,0.027932960893854747,0.01612367940704685,0.0,0.0,0.0,0.0111731843575419,0.03910614525139665,0.0111731843575419,0.0,0.0,0.0,0.008379888268156424,0.0,0.04207920792079208,0.05865921787709497,0.043316831683168314,0.0446927374301676,0.006188118811881188,0.0,0.03589108910891089,0.02599009900990099,0.01675977653631285,0.04084158415841584,0.052934343713700975,0.0,0.0,0.0,0.0,0.05017561812047126,0.09918275347087781,0.0446927374301676,0.0,0.029136014160075226,0.0012376237623762376
S15_D15 hbo,0.0,0.0,0.07214912280701755,0.049342105263157895,0.03925438596491228,0.0,0.0,0.0,0.0,0.0599780701754386,0.05197368421052632,0.0,0.07357456140350878,0.0,0.0,0.047697368421052634,0.0,0.005263157894736842,0.014035087719298246,0.017214912280701752,0.0,0.009868421052631578,0.02456140350877193,0.012280701754385965,0.03969298245614035,0.03037280701754386,0.0,0.0,0.0,0.010526315789473684,0.02982456140350877,0.028070175438596492,0.06458333333333333,0.0,0.09342105263157895,0.0,0.0,0.0,0.03125,0.0,0.02982456140350877,0.005263157894736842,0.0,0.0,0.0,0.0,0.013157894736842105,0.02631578947368421,0.11228070175438595,0.0,0.001644736842105263,0.006578947368421052
S15_D16 hbo,0.05,0.0,0.0,0.0,0.0,0.05,0.0,0.0,0.0,0.0,0.0,0.0,0.0,0.0,0.05,0.0,0.05,0.0,0.0,0.0,0.05,0.05,0.0,0.0,0.15217391304347827,0.0,0.0,0.0,0.0,0.05,0.0,0.0,0.0,0.0,0.0,0.0,0.05,0.0,0.0,0.0,0.0,0.0,0.0,0.0,0.05,0.05,0.0,0.0,0.0,0.34782608695652173,0.0,0.0
S16_D14 hbo,0.0,0.0,0.005747126436781609,0.005747126436781609,0.031609195402298854,0.0,0.0,0.0,0.0,0.0028735632183908046,0.028735632183908046,0.031609195402298854,0.031609195402298854,0.0,0.04411764705882353,0.0028735632183908046,0.0,0.031609195402298854,0.03823529411764706,0.011494252873563218,0.008823529411764706,0.008688302907369844,0.0,0.0,0.005747126436781609,0.005747126436781609,0.0,0.0,0.0,0.0,0.0,0.08455037187288708,0.07647058823529412,0.031609195402298854,0.008823529411764706,0.0,0.0,0.031609195402298854,0.040432724814063556,0.03235294117647059,0.031609195402298854,0.031609195402298854,0.0,0.008823529411764706,0.008823529411764706,0.008823529411764706,0.0933739012846518,0.049256254225828265,0.005747126436781609,0.0,0.1433739012846518,0.01744421906693712
S16_D16 hbo,0.0,0.0,0.040513234996969086,0.040513234996969086,0.009900990099009901,0.0,0.0,0.0,0.0,0.03556273994746413,0.03556273994746413,0.009900990099009901,0.009900990099009901,0.0,0.0,0.03556273994746413,0.0,0.009900990099009901,0.0,0.009900990099009901,0.0,0.05536472014548394,0.0,0.0,0.024752475247524754,0.019801980198019802,0.0,0.0,0.0,0.0,0.0,0.009900990099009901,0.0,0.009900990099009901,0.02806122448979592,0.0,0.0,0.02265609213982623,0.07112547989492826,0.08415841584158416,0.009900990099009901,0.009900990099009901,0.0,0.030612244897959183,0.03826530612244898,0.025510204081632654,0.05326833703778541,0.009900990099009901,0.024752475247524754,0.0,0.02250454637300465,0.2124419074560517
