,S1_D1 hbo,S1_D3 hbo,S2_D1 hbo,S2_D2 hbo,S2_D4 hbo,S3_D1 hbo,S3_D3 hbo,S3_D4 hbo,S3_D5 hbo,S4_D2 hbo,S4_D4 hbo,S4_D6 hbo,S4_D11 hbo,S5_D3 hbo,S5_D5 hbo,S5_D7 hbo,S6_D4 hbo,S6_D5 hbo,S6_D6 hbo,S6_D8 hbo,S7_D5 hbo,S7_D7 hbo,S7_D8 hbo,S8_D6 hbo,S8_D8 hbo,S8_D15 hbo,S9_D2 hbo,S9_D9 hbo,S9_D11 hbo,S10_D9 hbo,S10_D10 hbo,S10_D12 hbo,S11_D9 hbo,S11_D11 hbo,S11_D12 hbo,S11_D13 hbo,S12_D10 hbo,S12_D12 hbo,S12_D14 hbo,S13_D6 hbo,S13_D11 hbo,S13_D13 hbo,S13_D15 hbo,S14_D12 hbo,S14_D13 hbo,S14_D14 hbo,S14_D16 hbo,S15_D13 hbo,S15_D15 hbo,S15_D16 hbo,S16_D14 hbo,S16_D16 hbo
S1_D1 hbo,0.020689655172413793,0.0,0.02413793103448276,0.0,0.020689655172413793,0.02413793103448276,0.02413793103448276,0.02413793103448276,0.02413793103448276,0.02413793103448276,0.0034482758620689655,0.02413793103448276,0.02413793103448276,0.0,0.006896551724137931,0.017241379310344827,0.02413793103448276,0.02413793103448276,0.02413793103448276,0.0034482758620689655,0.02413793103448276,0.020689655172413793,0.02413793103448276,0.0,0.0034482758620689655,0.02413793103448276,0.017241379310344827,0.010344827586206896,0.013793103448275862,0.02413793103448276,0.02413793103448276,0.02413793103448276,0.02413793103448276,0.02413793103448276,0.02413793103448276,0.02413793103448276,0.02413793103448276,0.02413793103448276,0.02413793103448276,0.02413793103448276,0.02413793103448276,0.02413793103448276,0.02413793103448276,0.02413793103448276,0.02413793103448276,0.02413793103448276,0.02413793103448276,0.02413793103448276,0.02413793103448276,0.02413793103448276,0.0,0.017241379310344827
S1_D3 hbo,0.0,0.0,0.0,0.0,0.0,0.0,0.0,0.0,0.0,0.0,0.0,0.0,0.0,0.0,0.0,0.0,0.0,0.0,0.0,0.0,0.0,0.0,0.0,0.0,0.0,0.0,0.0,0.0,0.0,0.0,0.0,0.0,0.0,0.0,0.0,0.0,0.0,0.0,0.0,0.0,0.0,0.0,0.0,0.0,0.0,0.0,0.0,0.0,0.0,0.0,0.0,0.0
S2_D1 hbo,0.018867924528301886,0.0,0.0220125786163522,0.0,0.018867924528301886,0.0220125786163522,0.0220125786163522,0.025157232704402517,0.025157232704402517,0.025157232704402517,0.0031446540880503146,0.025157232704402517,0.025157232704402517,0.0,0.006289308176100629,0.015723270440251572,0.025157232704402517,0.025157232704402517,0.025157232704402517,0.0031446540880503146,0.025157232704402517,0.018867924528301886,0.0220125786163522,0.0,0.0031446540880503146,0.025157232704402517,0.015723270440251572,0.009433962264150943,0.012578616352201259,0.025157232704402517,0.025157232704402517,0.025157232704402517,0.0220125786163522,0.0220125786163522,0.025157232704402517,0.025157232704402517,0.025157232704402517,0.025157232704402517,0.025157232704402517,0.025157232704402517,0.025157232704402517,0.025157232704402517,0.025157232704402517,0.025157232704402517,0.025157232704402517,0.025157232704402517,0.025157232704402517,0.025157232704402517,0.025157232704402517,0.0220125786163522,0.0,0.015723270440251572
S2_D2 hbo,0.0,0.0,0.0,0.0,0.0,0.0,0.0,0.0,0.0,0.0,0.0,0.0,0.0,0.0,0.0,0.0,0.0,0.0,0.0,0.0,0.0,0.0,0.0,0.0,0.0,0.0,0.0,0.0,0.0,0.0,0.0,0.0,0.0,0.0,0.0,0.0,0.0,0.0,0.0,0.0,0.0,0.0,0.0,0.0,0.0,0.0,0.0,0.0,0.0,0.0,0.0,0.0
S2_D4 hbo,0.020689655172413793,0.0,0.02413793103448276,0.0,0.020689655172413793,0.02413793103448276,0.02413793103448276,0.02413793103448276,0.02413793103448276,0.02413793103448276,0.0034482758620689655,0.02413793103448276,0.02413793103448276,0.0,0.006896551724137931,0.017241379310344827,0.02413793103448276,0.02413793103448276,0.02413793103448276,0.0034482758620689655,0.02413793103448276,0.020689655172413793,0.02413793103448276,0.0,0.0034482758620689655,0.02413793103448276,0.017241379310344827,0.010344827586206896,0.013793103448275862,0.02413793103448276,0.02413793103448276,0.02413793103448276,0.02413793103448276,0.02413793103448276,0.02413793103448276,0.02413793103448276,0.02413793103448276,0.02413793103448276,0.02413793103448276,0.02413793103448276,0.02413793103448276,0.02413793103448276,0.02413793103448276,0.02413793103448276,0.02413793103448276,0.02413793103448276,0.02413793103448276,0.02413793103448276,0.02413793103448276,0.02413793103448276,0.0,0.017241379310344827
S3_D1 hbo,0.018867924528301886,0.0,0.0220125786163522,0.0,0.018867924528301886,0.0220125786163522,0.0220125786163522,0.025157232704402517,0.025157232704402517,0.025157232704402517,0.0031446540880503146,0.025157232704402517,0.025157232704402517,0.0,0.006289308176100629,0.015723270440251572,0.025157232704402517,0.025157232704402517,0.025157232704402517,0.0031446540880503146,0.025157232704402517,0.018867924528301886,0.0220125786163522,0.0,0.0031446540880503146,0.025157232704402517,0.015723270440251572,0.009433962264150943,0.012578616352201259,0.025157232704402517,0.025157232704402517,0.025157232704402517,0.0220125786163522,0.0220125786163522,0.025157232704402517,0.025157232704402517,0.025157232704402517,0.025157232704402517,0.025157232704402517,0.025157232704402517,0.025157232704402517,0.025157232704402517,0.025157232704402517,0.025157232704402517,0.025157232704402517,0.025157232704402517,0.025157232704402517,0.025157232704402517,0.025157232704402517,0.0220125786163522,0.0,0.015723270440251572
S3_D3 hbo,0.018867924528301886,0.0,0.0220125786163522,0.0,0.018867924528301886,0.0220125786163522,0.0220125786163522,0.025157232704402517,0.025157232704402517,0.025157232704402517,0.0031446540880503146,0.025157232704402517,0.025157232704402517,0.0,0.006289308176100629,0.015723270440251572,0.025157232704402517,0.025157232704402517,0.025157232704402517,0.0031446540880503146,0.025157232704402517,0.018867924528301886,0.0220125786163522,0.0,0.0031446540880503146,0.025157232704402517,0.015723270440251572,0.009433962264150943,0.012578616352201259,0.025157232704402517,0.025157232704402517,0.025157232704402517,0.0220125786163522,0.0220125786163522,0.025157232704402517,0.025157232704402517,0.025157232704402517,0.025157232704402517,0.025157232704402517,0.025157232704402517,0.025157232704402517,0.025157232704402517,0.025157232704402517,0.025157232704402517,0.025157232704402517,0.025157232704402517,0.025157232704402517,0.025157232704402517,0.025157232704402517,0.0220125786163522,0.0,0.015723270440251572
S3_D4 hbo,0.0182370820668693,0.0,0.02127659574468085,0.0,0.0182370820668693,0.02127659574468085,0.02127659574468085,0.0243161094224924,0.0243161094224924,0.02735562310030395,0.00303951367781155,0.0243161094224924,0.02735562310030395,0.0,0.0060790273556231,0.015197568389057751,0.0243161094224924,0.02735562310030395,0.02735562310030395,0.00303951367781155,0.0243161094224924,0.0182370820668693,0.02127659574468085,0.0,0.00303951367781155,0.0243161094224924,0.015197568389057751,0.00911854103343465,0.0121580547112462,0.02735562310030395,0.0243161094224924,0.0243161094224924,0.02127659574468085,0.02127659574468085,0.0243161094224924,0.0243161094224924,0.0243161094224924,0.0243161094224924,0.0243161094224924,0.02735562310030395,0.02735562310030395,0.02735562310030395,0.02735562310030395,0.0243161094224924,0.02735562310030395,0.0243161094224924,0.0243161094224924,0.02735562310030395,0.0243161094224924,0.02127659574468085,0.0,0.015197568389057751
S3_D5 hbo,0.0182370820668693,0.0,0.02127659574468085,0.0,0.0182370820668693,0.02127659574468085,0.02127659574468085,0.0243161094224924,0.0243161094224924,0.02735562310030395,0.00303951367781155,0.0243161094224924,0.02735562310030395,0.0,0.0060790273556231,0.015197568389057751,0.0243161094224924,0.02735562310030395,0.02735562310030395,0.00303951367781155,0.0243161094224924,0.0182370820668693,0.02127659574468085,0.0,0.00303951367781155,0.0243161094224924,0.015197568389057751,0.00911854103343465,0.0121580547112462,0.02735562310030395,0.0243161094224924,0.0243161094224924,0.02127659574468085,0.02127659574468085,0.0243161094224924,0.0243161094224924,0.0243161094224924,0.0243161094224924,0.0243161094224924,0.02735562310030395,0.02735562310030395,0.02735562310030395,0.02735562310030395,0.0243161094224924,0.02735562310030395,0.0243161094224924,0.0243161094224924,0.02735562310030395,0.0243161094224924,0.02127659574468085,0.0,0.015197568389057751
S4_D2 hbo,0.01812688821752266,0.0,0.021148036253776436,0.0,0.01812688821752266,0.021148036253776436,0.021148036253776436,0.02416918429003021,0.02416918429003021,0.027190332326283987,0.0030211480362537764,0.02416918429003021,0.027190332326283987,0.0,0.006042296072507553,0.015105740181268883,0.02416918429003021,0.027190332326283987,0.027190332326283987,0.0030211480362537764,0.02416918429003021,0.01812688821752266,0.021148036253776436,0.0,0.0030211480362537764,0.02416918429003021,0.015105740181268883,0.00906344410876133,0.012084592145015106,0.027190332326283987,0.02416918429003021,0.02416918429003021,0.021148036253776436,0.021148036253776436,0.02416918429003021,0.02416918429003021,0.02416918429003021,0.02416918429003021,0.02416918429003021,0.027190332326283987,0.027190332326283987,0.030211480362537766,0.030211480362537766,0.02416918429003021,0.027190332326283987,0.02416918429003021,0.02416918429003021,0.027190332326283987,0.02416918429003021,0.021148036253776436,0.0,0.015105740181268883
S4_D4 hbo,0.02197802197802198,0.0,0.02197802197802198,0.0,0.02197802197802198,0.02197802197802198,0.02197802197802198,0.02197802197802198,0.02197802197802198,0.02197802197802198,0.01098901098901099,0.02197802197802198,0.02197802197802198,0.0,0.02197802197802198,0.02197802197802198,0.02197802197802198,0.02197802197802198,0.02197802197802198,0.01098901098901099,0.02197802197802198,0.02197802197802198,0.02197802197802198,0.0,0.01098901098901099,0.02197802197802198,0.02197802197802198,0.02197802197802198,0.02197802197802198,0.02197802197802198,0.02197802197802198,0.02197802197802198,0.02197802197802198,0.02197802197802198,0.02197802197802198,0.02197802197802198,0.02197802197802198,0.02197802197802198,0.02197802197802198,0.02197802197802198,0.02197802197802198,0.02197802197802198,0.02197802197802198,0.02197802197802198,0.02197802197802198,0.02197802197802198,0.02197802197802198,0.02197802197802198,0.02197802197802198,0.02197802197802198,0.0,0.02197802197802198
S4_D6 hbo,0.0182370820668693,0.0,0.02127659574468085,0.0,0.0182370820668693,0.02127659574468085,0.02127659574468085,0.0243161094224924,0.0243161094224924,0.02735562310030395,0.00303951367781155,0.0243161094224924,0.02735562310030395,0.0,0.0060790273556231,0.015197568389057751,0.0243161094224924,0.02735562310030395,0.02735562310030395,0.00303951367781155,0.0243161094224924,0.0182370820668693,0.02127659574468085,0.0,0.00303951367781155,0.0243161094224924,0.015197568389057751,0.00911854103343465,0.0121580547112462,0.02735562310030395,0.0243161094224924,0.0243161094224924,0.02127659574468085,0.02127659574468085,0.0243161094224924,0.0243161094224924,0.0243161094224924,0.0243161094224924,0.0243161094224924,0.02735562310030395,0.02735562310030395,0.02735562310030395,0.02735562310030395,0.0243161094224924,0.02735562310030395,0.0243161094224924,0.0243161094224924,0.02735562310030395,0.0243161094224924,0.02127659574468085,0.0,0.015197568389057751
S4_D11 hbo,0.01812688821752266,0.0,0.021148036253776436,0.0,0.01812688821752266,0.021148036253776436,0.021148036253776436,0.02416918429003021,0.02416918429003021,0.027190332326283987,0.0030211480362537764,0.02416918429003021,0.027190332326283987,0.0,0.006042296072507553,0.015105740181268883,0.02416918429003021,0.027190332326283987,0.027190332326283987,0.0030211480362537764,0.02416918429003021,0.01812688821752266,0.021148036253776436,0.0,0.0030211480362537764,0.02416918429003021,0.015105740181268883,0.00906344410876133,0.012084592145015106,0.027190332326283987,0.02416918429003021,0.02416918429003021,0.021148036253776436,0.021148036253776436,0.02416918429003021,0.02416918429003021,0.02416918429003021,0.02416918429003021,0.02416918429003021,0.027190332326283987,0.027190332326283987,0.030211480362537766,0.030211480362537766,0.02416918429003021,0.027190332326283987,0.02416918429003021,0.02416918429003021,0.027190332326283987,0.02416918429003021,0.021148036253776436,0.0,0.015105740181268883
S5_D3 hbo,0.0,0.0,0.0,0.0,0.0,0.0,0.0,0.0,0.0,0.0,0.0,0.0,0.0,0.0,0.0,0.0,0.0,0.0,0.0,0.0,0.0,0.0,0.0,0.0,0.0,0.0,0.0,0.0,0.0,0.0,0.0,0.0,0.0,0.0,0.0,0.0,0.0,0.0,0.0,0.0,0.0,0.0,0.0,0.0,0.0,0.0,0.0,0.0,0.0,0.0,0.0,0.0
S5_D5 hbo,0.022388059701492536,0.0,0.022388059701492536,0.0,0.022388059701492536,0.022388059701492536,0.022388059701492536,0.022388059701492536,0.022388059701492536,0.022388059701492536,0.007462686567164179,0.022388059701492536,0.022388059701492536,0.0,0.014925373134328358,0.022388059701492536,0.022388059701492536,0.022388059701492536,0.022388059701492536,0.007462686567164179,0.022388059701492536,0.022388059701492536,0.022388059701492536,0.0,0.007462686567164179,0.022388059701492536,0.022388059701492536,0.022388059701492536,0.022388059701492536,0.022388059701492536,0.022388059701492536,0.022388059701492536,0.022388059701492536,0.022388059701492536,0.022388059701492536,0.022388059701492536,0.022388059701492536,0.022388059701492536,0.022388059701492536,0.022388059701492536,0.022388059701492536,0.022388059701492536,0.022388059701492536,0.022388059701492536,0.022388059701492536,0.022388059701492536,0.022388059701492536,0.022388059701492536,0.022388059701492536,0.022388059701492536,0.0,0.022388059701492536
S5_D7 hbo,0.023529411764705882,0.0,0.023529411764705882,0.0,0.023529411764705882,0.023529411764705882,0.023529411764705882,0.023529411764705882,0.023529411764705882,0.023529411764705882,0.00392156862745098,0.023529411764705882,0.023529411764705882,0.0,0.00784313725490196,0.0196078431372549,0.023529411764705882,0.023529411764705882,0.023529411764705882,0.00392156862745098,0.023529411764705882,0.023529411764705882,0.023529411764705882,0.0,0.00392156862745098,0.023529411764705882,0.0196078431372549,0.011764705882352941,0.01568627450980392,0.023529411764705882,0.023529411764705882,0.023529411764705882,0.023529411764705882,0.023529411764705882,0.023529411764705882,0.023529411764705882,0.023529411764705882,0.023529411764705882,0.023529411764705882,0.023529411764705882,0.023529411764705882,0.023529411764705882,0.023529411764705882,0.023529411764705882,0.023529411764705882,0.023529411764705882,0.023529411764705882,0.023529411764705882,0.023529411764705882,0.023529411764705882,0.0,0.0196078431372549
S6_D4 hbo,0.0182370820668693,0.0,0.02127659574468085,0.0,0.0182370820668693,0.02127659574468085,0.02127659574468085,0.0243161094224924,0.0243161094224924,0.02735562310030395,0.00303951367781155,0.0243161094224924,0.02735562310030395,0.0,0.0060790273556231,0.015197568389057751,0.0243161094224924,0.02735562310030395,0.02735562310030395,0.00303951367781155,0.0243161094224924,0.0182370820668693,0.02127659574468085,0.0,0.00303951367781155,0.0243161094224924,0.015197568389057751,0.00911854103343465,0.0121580547112462,0.02735562310030395,0.0243161094224924,0.0243161094224924,0.02127659574468085,0.02127659574468085,0.0243161094224924,0.0243161094224924,0.0243161094224924,0.0243161094224924,0.0243161094224924,0.02735562310030395,0.02735562310030395,0.02735562310030395,0.02735562310030395,0.0243161094224924,0.02735562310030395,0.0243161094224924,0.0243161094224924,0.02735562310030395,0.0243161094224924,0.02127659574468085,0.0,0.015197568389057751
S6_D5 hbo,0.01812688821752266,0.0,0.021148036253776436,0.0,0.01812688821752266,0.021148036253776436,0.021148036253776436,0.02416918429003021,0.02416918429003021,0.027190332326283987,0.0030211480362537764,0.02416918429003021,0.027190332326283987,0.0,0.006042296072507553,0.015105740181268883,0.02416918429003021,0.027190332326283987,0.027190332326283987,0.0030211480362537764,0.02416918429003021,0.01812688821752266,0.021148036253776436,0.0,0.0030211480362537764,0.02416918429003021,0.015105740181268883,0.00906344410876133,0.012084592145015106,0.027190332326283987,0.02416918429003021,0.02416918429003021,0.021148036253776436,0.021148036253776436,0.02416918429003021,0.02416918429003021,0.02416918429003021,0.02416918429003021,0.02416918429003021,0.027190332326283987,0.027190332326283987,0.030211480362537766,0.030211480362537766,0.02416918429003021,0.027190332326283987,0.02416918429003021,0.02416918429003021,0.027190332326283987,0.02416918429003021,0.021148036253776436,0.0,0.015105740181268883
S6_D6 hbo,0.01812688821752266,0.0,0.021148036253776436,0.0,0.01812688821752266,0.021148036253776436,0.021148036253776436,0.02416918429003021,0.02416918429003021,0.027190332326283987,0.0030211480362537764,0.02416918429003021,0.027190332326283987,0.0,0.006042296072507553,0.015105740181268883,0.02416918429003021,0.027190332326283987,0.027190332326283987,0.0030211480362537764,0.02416918429003021,0.01812688821752266,0.021148036253776436,0.0,0.0030211480362537764,0.02416918429003021,0.015105740181268883,0.00906344410876133,0.012084592145015106,0.027190332326283987,0.02416918429003021,0.02416918429003021,0.021148036253776436,0.021148036253776436,0.02416918429003021,0.02416918429003021,0.02416918429003021,0.02416918429003021,0.02416918429003021,0.027190332326283987,0.027190332326283987,0.030211480362537766,0.030211480362537766,0.02416918429003021,0.027190332326283987,0.02416918429003021,0.02416918429003021,0.027190332326283987,0.02416918429003021,0.021148036253776436,0.0,0.015105740181268883
S6_D8 hbo,0.02197802197802198,0.0,0.02197802197802198,0.0,0.02197802197802198,0.02197802197802198,0.02197802197802198,0.02197802197802198,0.02197802197802198,0.02197802197802198,0.01098901098901099,0.02197802197802198,0.02197802197802198,0.0,0.02197802197802198,0.02197802197802198,0.02197802197802198,0.02197802197802198,0.02197802197802198,0.01098901098901099,0.02197802197802198,0.02197802197802198,0.02197802197802198,0.0,0.01098901098901099,0.02197802197802198,0.02197802197802198,0.02197802197802198,0.02197802197802198,0.02197802197802198,0.02197802197802198,0.02197802197802198,0.02197802197802198,0.02197802197802198,0.02197802197802198,0.02197802197802198,0.02197802197802198,0.02197802197802198,0.02197802197802198,0.02197802197802198,0.02197802197802198,0.02197802197802198,0.02197802197802198,0.02197802197802198,0.02197802197802198,0.02197802197802198,0.02197802197802198,0.02197802197802198,0.02197802197802198,0.02197802197802198,0.0,0.02197802197802198
S7_D5 hbo,0.0182370820668693,0.0,0.02127659574468085,0.0,0.0182370820668693,0.02127659574468085,0.02127659574468085,0.0243161094224924,0.0243161094224924,0.02735562310030395,0.00303951367781155,0.0243161094224924,0.02735562310030395,0.0,0.0060790273556231,0.015197568389057751,0.0243161094224924,0.02735562310030395,0.02735562310030395,0.00303951367781155,0.0243161094224924,0.0182370820668693,0.02127659574468085,0.0,0.00303951367781155,0.0243161094224924,0.015197568389057751,0.00911854103343465,0.0121580547112462,0.02735562310030395,0.0243161094224924,0.0243161094224924,0.02127659574468085,0.02127659574468085,0.0243161094224924,0.0243161094224924,0.0243161094224924,0.0243161094224924,0.0243161094224924,0.02735562310030395,0.02735562310030395,0.02735562310030395,0.02735562310030395,0.0243161094224924,0.02735562310030395,0.0243161094224924,0.0243161094224924,0.02735562310030395,0.0243161094224924,0.02127659574468085,0.0,0.015197568389057751
S7_D7 hbo,0.020689655172413793,0.0,0.02413793103448276,0.0,0.020689655172413793,0.02413793103448276,0.02413793103448276,0.02413793103448276,0.02413793103448276,0.02413793103448276,0.0034482758620689655,0.02413793103448276,0.02413793103448276,0.0,0.006896551724137931,0.017241379310344827,0.02413793103448276,0.02413793103448276,0.02413793103448276,0.0034482758620689655,0.02413793103448276,0.020689655172413793,0.02413793103448276,0.0,0.0034482758620689655,0.02413793103448276,0.017241379310344827,0.010344827586206896,0.013793103448275862,0.02413793103448276,0.02413793103448276,0.02413793103448276,0.02413793103448276,0.02413793103448276,0.02413793103448276,0.02413793103448276,0.02413793103448276,0.02413793103448276,0.02413793103448276,0.02413793103448276,0.02413793103448276,0.02413793103448276,0.02413793103448276,0.02413793103448276,0.02413793103448276,0.02413793103448276,0.02413793103448276,0.02413793103448276,0.02413793103448276,0.02413793103448276,0.0,0.017241379310344827
S7_D8 hbo,0.018867924528301886,0.0,0.0220125786163522,0.0,0.018867924528301886,0.0220125786163522,0.0220125786163522,0.025157232704402517,0.025157232704402517,0.025157232704402517,0.0031446540880503146,0.025157232704402517,0.025157232704402517,0.0,0.006289308176100629,0.015723270440251572,0.025157232704402517,0.025157232704402517,0.025157232704402517,0.0031446540880503146,0.025157232704402517,0.018867924528301886,0.0220125786163522,0.0,0.0031446540880503146,0.025157232704402517,0.015723270440251572,0.009433962264150943,0.012578616352201259,0.025157232704402517,0.025157232704402517,0.025157232704402517,0.0220125786163522,0.0220125786163522,0.025157232704402517,0.025157232704402517,0.025157232704402517,0.025157232704402517,0.025157232704402517,0.025157232704402517,0.025157232704402517,0.025157232704402517,0.025157232704402517,0.025157232704402517,0.025157232704402517,0.025157232704402517,0.025157232704402517,0.025157232704402517,0.025157232704402517,0.0220125786163522,0.0,0.015723270440251572
S8_D6 hbo,0.02127659574468085,0.0,0.02127659574468085,0.0,0.02127659574468085,0.02127659574468085,0.02127659574468085,0.02127659574468085,0.02127659574468085,0.02127659574468085,0.02127659574468085,0.02127659574468085,0.02127659574468085,0.0,0.02127659574468085,0.02127659574468085,0.02127659574468085,0.02127659574468085,0.02127659574468085,0.02127659574468085,0.02127659574468085,0.02127659574468085,0.02127659574468085,0.0,0.02127659574468085,0.02127659574468085,0.02127659574468085,0.02127659574468085,0.02127659574468085,0.02127659574468085,0.02127659574468085,0.02127659574468085,0.02127659574468085,0.02127659574468085,0.02127659574468085,0.02127659574468085,0.02127659574468085,0.02127659574468085,0.02127659574468085,0.02127659574468085,0.02127659574468085,0.02127659574468085,0.02127659574468085,0.02127659574468085,0.02127659574468085,0.02127659574468085,0.02127659574468085,0.02127659574468085,0.02127659574468085,0.02127659574468085,0.0,0.02127659574468085
S8_D8 hbo,0.02197802197802198,0.0,0.02197802197802198,0.0,0.02197802197802198,0.02197802197802198,0.02197802197802198,0.02197802197802198,0.02197802197802198,0.02197802197802198,0.01098901098901099,0.02197802197802198,0.02197802197802198,0.0,0.02197802197802198,0.02197802197802198,0.02197802197802198,0.02197802197802198,0.02197802197802198,0.01098901098901099,0.02197802197802198,0.02197802197802198,0.02197802197802198,0.0,0.01098901098901099,0.02197802197802198,0.02197802197802198,0.02197802197802198,0.02197802197802198,0.02197802197802198,0.02197802197802198,0.02197802197802198,0.02197802197802198,0.02197802197802198,0.02197802197802198,0.02197802197802198,0.02197802197802198,0.02197802197802198,0.02197802197802198,0.02197802197802198,0.02197802197802198,0.02197802197802198,0.02197802197802198,0.02197802197802198,0.02197802197802198,0.02197802197802198,0.02197802197802198,0.02197802197802198,0.02197802197802198,0.02197802197802198,0.0,0.02197802197802198
S8_D15 hbo,0.0182370820668693,0.0,0.02127659574468085,0.0,0.0182370820668693,0.02127659574468085,0.02127659574468085,0.0243161094224924,0.0243161094224924,0.02735562310030395,0.00303951367781155,0.0243161094224924,0.02735562310030395,0.0,0.0060790273556231,0.015197568389057751,0.0243161094224924,0.02735562310030395,0.02735562310030395,0.00303951367781155,0.0243161094224924,0.0182370820668693,0.02127659574468085,0.0,0.00303951367781155,0.0243161094224924,0.015197568389057751,0.00911854103343465,0.0121580547112462,0.02735562310030395,0.0243161094224924,0.0243161094224924,0.02127659574468085,0.02127659574468085,0.0243161094224924,0.0243161094224924,0.0243161094224924,0.0243161094224924,0.0243161094224924,0.02735562310030395,0.02735562310030395,0.02735562310030395,0.02735562310030395,0.0243161094224924,0.02735562310030395,0.0243161094224924,0.0243161094224924,0.02735562310030395,0.0243161094224924,0.02127659574468085,0.0,0.015197568389057751
S9_D2 hbo,0.023529411764705882,0.0,0.023529411764705882,0.0,0.023529411764705882,0.023529411764705882,0.023529411764705882,0.023529411764705882,0.023529411764705882,0.023529411764705882,0.00392156862745098,0.023529411764705882,0.023529411764705882,0.0,0.00784313725490196,0.0196078431372549,0.023529411764705882,0.023529411764705882,0.023529411764705882,0.00392156862745098,0.023529411764705882,0.023529411764705882,0.023529411764705882,0.0,0.00392156862745098,0.023529411764705882,0.0196078431372549,0.011764705882352941,0.01568627450980392,0.023529411764705882,0.023529411764705882,0.023529411764705882,0.023529411764705882,0.023529411764705882,0.023529411764705882,0.023529411764705882,0.023529411764705882,0.023529411764705882,0.023529411764705882,0.023529411764705882,0.023529411764705882,0.023529411764705882,0.023529411764705882,0.023529411764705882,0.023529411764705882,0.023529411764705882,0.023529411764705882,0.023529411764705882,0.023529411764705882,0.023529411764705882,0.0,0.0196078431372549
S9_D9 hbo,0.022727272727272728,0.0,0.022727272727272728,0.0,0.022727272727272728,0.022727272727272728,0.022727272727272728,0.022727272727272728,0.022727272727272728,0.022727272727272728,0.005681818181818182,0.022727272727272728,0.022727272727272728,0.0,0.011363636363636364,0.022727272727272728,0.022727272727272728,0.022727272727272728,0.022727272727272728,0.005681818181818182,0.022727272727272728,0.022727272727272728,0.022727272727272728,0.0,0.005681818181818182,0.022727272727272728,0.022727272727272728,0.017045454545454544,0.022727272727272728,0.022727272727272728,0.022727272727272728,0.022727272727272728,0.022727272727272728,0.022727272727272728,0.022727272727272728,0.022727272727272728,0.022727272727272728,0.022727272727272728,0.022727272727272728,0.022727272727272728,0.022727272727272728,0.022727272727272728,0.022727272727272728,0.022727272727272728,0.022727272727272728,0.022727272727272728,0.022727272727272728,0.022727272727272728,0.022727272727272728,0.022727272727272728,0.0,0.022727272727272728
S9_D11 hbo,0.02304147465437788,0.0,0.02304147465437788,0.0,0.02304147465437788,0.02304147465437788,0.02304147465437788,0.02304147465437788,0.02304147465437788,0.02304147465437788,0.004608294930875576,0.02304147465437788,0.02304147465437788,0.0,0.009216589861751152,0.02304147465437788,0.02304147465437788,0.02304147465437788,0.02304147465437788,0.004608294930875576,0.02304147465437788,0.02304147465437788,0.02304147465437788,0.0,0.004608294930875576,0.02304147465437788,0.02304147465437788,0.013824884792626729,0.018433179723502304,0.02304147465437788,0.02304147465437788,0.02304147465437788,0.02304147465437788,0.02304147465437788,0.02304147465437788,0.02304147465437788,0.02304147465437788,0.02304147465437788,0.02304147465437788,0.02304147465437788,0.02304147465437788,0.02304147465437788,0.02304147465437788,0.02304147465437788,0.02304147465437788,0.02304147465437788,0.02304147465437788,0.02304147465437788,0.02304147465437788,0.02304147465437788,0.0,0.02304147465437788
S10_D9 hbo,0.01812688821752266,0.0,0.021148036253776436,0.0,0.01812688821752266,0.021148036253776436,0.021148036253776436,0.02416918429003021,0.02416918429003021,0.027190332326283987,0.0030211480362537764,0.02416918429003021,0.027190332326283987,0.0,0.006042296072507553,0.015105740181268883,0.02416918429003021,0.027190332326283987,0.027190332326283987,0.0030211480362537764,0.02416918429003021,0.01812688821752266,0.021148036253776436,0.0,0.0030211480362537764,0.02416918429003021,0.015105740181268883,0.00906344410876133,0.012084592145015106,0.027190332326283987,0.02416918429003021,0.02416918429003021,0.021148036253776436,0.021148036253776436,0.02416918429003021,0.02416918429003021,0.02416918429003021,0.02416918429003021,0.02416918429003021,0.027190332326283987,0.027190332326283987,0.030211480362537766,0.030211480362537766,0.02416918429003021,0.027190332326283987,0.02416918429003021,0.02416918429003021,0.027190332326283987,0.02416918429003021,0.021148036253776436,0.0,0.015105740181268883
S10_D10 hbo,0.0182370820668693,0.0,0.02127659574468085,0.0,0.0182370820668693,0.02127659574468085,0.02127659574468085,0.0243161094224924,0.0243161094224924,0.02735562310030395,0.00303951367781155,0.0243161094224924,0.02735562310030395,0.0,0.0060790273556231,0.015197568389057751,0.0243161094224924,0.02735562310030395,0.02735562310030395,0.00303951367781155,0.0243161094224924,0.0182370820668693,0.02127659574468085,0.0,0.00303951367781155,0.0243161094224924,0.015197568389057751,0.00911854103343465,0.0121580547112462,0.02735562310030395,0.0243161094224924,0.0243161094224924,0.02127659574468085,0.02127659574468085,0.0243161094224924,0.0243161094224924,0.0243161094224924,0.0243161094224924,0.0243161094224924,0.02735562310030395,0.02735562310030395,0.02735562310030395,0.02735562310030395,0.0243161094224924,0.02735562310030395,0.0243161094224924,0.0243161094224924,0.02735562310030395,0.0243161094224924,0.02127659574468085,0.0,0.015197568389057751
S10_D12 hbo,0.0182370820668693,0.0,0.02127659574468085,0.0,0.0182370820668693,0.02127659574468085,0.02127659574468085,0.0243161094224924,0.0243161094224924,0.02735562310030395,0.00303951367781155,0.0243161094224924,0.02735562310030395,0.0,0.0060790273556231,0.015197568389057751,0.0243161094224924,0.02735562310030395,0.02735562310030395,0.00303951367781155,0.0243161094224924,0.0182370820668693,0.02127659574468085,0.0,0.00303951367781155,0.0243161094224924,0.015197568389057751,0.00911854103343465,0.0121580547112462,0.02735562310030395,0.0243161094224924,0.0243161094224924,0.02127659574468085,0.02127659574468085,0.0243161094224924,0.0243161094224924,0.0243161094224924,0.0243161094224924,0.0243161094224924,0.02735562310030395,0.02735562310030395,0.02735562310030395,0.02735562310030395,0.0243161094224924,0.02735562310030395,0.0243161094224924,0.0243161094224924,0.02735562310030395,0.0243161094224924,0.02127659574468085,0.0,0.015197568389057751
S11_D9 hbo,0.018867924528301886,0.0,0.0220125786163522,0.0,0.018867924528301886,0.0220125786163522,0.0220125786163522,0.025157232704402517,0.025157232704402517,0.025157232704402517,0.0031446540880503146,0.025157232704402517,0.025157232704402517,0.0,0.006289308176100629,0.015723270440251572,0.025157232704402517,0.025157232704402517,0.025157232704402517,0.0031446540880503146,0.025157232704402517,0.018867924528301886,0.0220125786163522,0.0,0.0031446540880503146,0.025157232704402517,0.015723270440251572,0.009433962264150943,0.012578616352201259,0.025157232704402517,0.025157232704402517,0.025157232704402517,0.0220125786163522,0.0220125786163522,0.025157232704402517,0.025157232704402517,0.025157232704402517,0.025157232704402517,0.025157232704402517,0.025157232704402517,0.025157232704402517,0.025157232704402517,0.025157232704402517,0.025157232704402517,0.025157232704402517,0.025157232704402517,0.025157232704402517,0.025157232704402517,0.025157232704402517,0.0220125786163522,0.0,0.015723270440251572
S11_D11 hbo,0.018867924528301886,0.0,0.0220125786163522,0.0,0.018867924528301886,0.0220125786163522,0.0220125786163522,0.025157232704402517,0.025157232704402517,0.025157232704402517,0.0031446540880503146,0.025157232704402517,0.025157232704402517,0.0,0.006289308176100629,0.015723270440251572,0.025157232704402517,0.025157232704402517,0.025157232704402517,0.0031446540880503146,0.025157232704402517,0.018867924528301886,0.0220125786163522,0.0,0.0031446540880503146,0.025157232704402517,0.015723270440251572,0.009433962264150943,0.012578616352201259,0.025157232704402517,0.025157232704402517,0.025157232704402517,0.0220125786163522,0.0220125786163522,0.025157232704402517,0.025157232704402517,0.025157232704402517,0.025157232704402517,0.025157232704402517,0.025157232704402517,0.025157232704402517,0.025157232704402517,0.025157232704402517,0.025157232704402517,0.025157232704402517,0.025157232704402517,0.025157232704402517,0.025157232704402517,0.025157232704402517,0.0220125786163522,0.0,0.015723270440251572
S11_D12 hbo,0.0182370820668693,0.0,0.02127659574468085,0.0,0.0182370820668693,0.02127659574468085,0.02127659574468085,0.0243161094224924,0.0243161094224924,0.02735562310030395,0.00303951367781155,0.0243161094224924,0.02735562310030395,0.0,0.0060790273556231,0.015197568389057751,0.0243161094224924,0.02735562310030395,0.02735562310030395,0.00303951367781155,0.0243161094224924,0.0182370820668693,0.02127659574468085,0.0,0.00303951367781155,0.0243161094224924,0.015197568389057751,0.00911854103343465,0.0121580547112462,0.02735562310030395,0.0243161094224924,0.0243161094224924,0.02127659574468085,0.02127659574468085,0.0243161094224924,0.0243161094224924,0.0243161094224924,0.0243161094224924,0.0243161094224924,0.02735562310030395,0.02735562310030395,0.02735562310030395,0.02735562310030395,0.0243161094224924,0.02735562310030395,0.0243161094224924,0.0243161094224924,0.02735562310030395,0.0243161094224924,0.02127659574468085,0.0,0.015197568389057751
S11_D13 hbo,0.0182370820668693,0.0,0.02127659574468085,0.0,0.0182370820668693,0.02127659574468085,0.02127659574468085,0.0243161094224924,0.0243161094224924,0.02735562310030395,0.00303951367781155,0.0243161094224924,0.02735562310030395,0.0,0.0060790273556231,0.015197568389057751,0.0243161094224924,0.02735562310030395,0.02735562310030395,0.00303951367781155,0.0243161094224924,0.0182370820668693,0.02127659574468085,0.0,0.00303951367781155,0.0243161094224924,0.015197568389057751,0.00911854103343465,0.0121580547112462,0.02735562310030395,0.0243161094224924,0.0243161094224924,0.02127659574468085,0.02127659574468085,0.0243161094224924,0.0243161094224924,0.0243161094224924,0.0243161094224924,0.0243161094224924,0.02735562310030395,0.02735562310030395,0.02735562310030395,0.02735562310030395,0.0243161094224924,0.02735562310030395,0.0243161094224924,0.0243161094224924,0.02735562310030395,0.0243161094224924,0.02127659574468085,0.0,0.015197568389057751
S12_D10 hbo,0.0182370820668693,0.0,0.02127659574468085,0.0,0.0182370820668693,0.02127659574468085,0.02127659574468085,0.0243161094224924,0.0243161094224924,0.02735562310030395,0.00303951367781155,0.0243161094224924,0.02735562310030395,0.0,0.0060790273556231,0.015197568389057751,0.0243161094224924,0.02735562310030395,0.02735562310030395,0.00303951367781155,0.0243161094224924,0.0182370820668693,0.02127659574468085,0.0,0.00303951367781155,0.0243161094224924,0.015197568389057751,0.00911854103343465,0.0121580547112462,0.02735562310030395,0.0243161094224924,0.0243161094224924,0.02127659574468085,0.02127659574468085,0.0243161094224924,0.0243161094224924,0.0243161094224924,0.0243161094224924,0.0243161094224924,0.02735562310030395,0.02735562310030395,0.02735562310030395,0.02735562310030395,0.0243161094224924,0.02735562310030395,0.0243161094224924,0.0243161094224924,0.02735562310030395,0.0243161094224924,0.02127659574468085,0.0,0.015197568389057751
S12_D12 hbo,0.0182370820668693,0.0,0.02127659574468085,0.0,0.0182370820668693,0.02127659574468085,0.02127659574468085,0.0243161094224924,0.0243161094224924,0.02735562310030395,0.00303951367781155,0.0243161094224924,0.02735562310030395,0.0,0.0060790273556231,0.015197568389057751,0.0243161094224924,0.02735562310030395,0.02735562310030395,0.00303951367781155,0.0243161094224924,0.0182370820668693,0.02127659574468085,0.0,0.00303951367781155,0.0243161094224924,0.015197568389057751,0.00911854103343465,0.0121580547112462,0.02735562310030395,0.0243161094224924,0.0243161094224924,0.02127659574468085,0.02127659574468085,0.0243161094224924,0.0243161094224924,0.0243161094224924,0.0243161094224924,0.0243161094224924,0.02735562310030395,0.02735562310030395,0.02735562310030395,0.02735562310030395,0.0243161094224924,0.02735562310030395,0.0243161094224924,0.0243161094224924,0.02735562310030395,0.0243161094224924,0.02127659574468085,0.0,0.015197568389057751
S12_D14 hbo,0.0182370820668693,0.0,0.02127659574468085,0.0,0.0182370820668693,0.02127659574468085,0.02127659574468085,0.0243161094224924,0.0243161094224924,0.02735562310030395,0.00303951367781155,0.0243161094224924,0.02735562310030395,0.0,0.0060790273556231,0.015197568389057751,0.0243161094224924,0.02735562310030395,0.02735562310030395,0.00303951367781155,0.0243161094224924,0.0182370820668693,0.02127659574468085,0.0,0.00303951367781155,0.0243161094224924,0.015197568389057751,0.00911854103343465,0.0121580547112462,0.02735562310030395,0.0243161094224924,0.0243161094224924,0.02127659574468085,0.02127659574468085,0.0243161094224924,0.0243161094224924,0.0243161094224924,0.0243161094224924,0.0243161094224924,0.02735562310030395,0.02735562310030395,0.02735562310030395,0.02735562310030395,0.0243161094224924,0.02735562310030395,0.0243161094224924,0.0243161094224924,0.02735562310030395,0.0243161094224924,0.02127659574468085,0.0,0.015197568389057751
S13_D6 hbo,0.01812688821752266,0.0,0.021148036253776436,0.0,0.01812688821752266,0.021148036253776436,0.021148036253776436,0.02416918429003021,0.02416918429003021,0.027190332326283987,0.0030211480362537764,0.02416918429003021,0.027190332326283987,0.0,0.006042296072507553,0.015105740181268883,0.02416918429003021,0.027190332326283987,0.027190332326283987,0.0030211480362537764,0.02416918429003021,0.01812688821752266,0.021148036253776436,0.0,0.0030211480362537764,0.02416918429003021,0.015105740181268883,0.00906344410876133,0.012084592145015106,0.027190332326283987,0.02416918429003021,0.02416918429003021,0.021148036253776436,0.021148036253776436,0.02416918429003021,0.02416918429003021,0.02416918429003021,0.02416918429003021,0.02416918429003021,0.027190332326283987,0.027190332326283987,0.030211480362537766,0.030211480362537766,0.02416918429003021,0.027190332326283987,0.02416918429003021,0.02416918429003021,0.027190332326283987,0.02416918429003021,0.021148036253776436,0.0,0.015105740181268883
S13_D11 hbo,0.01812688821752266,0.0,0.021148036253776436,0.0,0.01812688821752266,0.021148036253776436,0.021148036253776436,0.02416918429003021,0.02416918429003021,0.027190332326283987,0.0030211480362537764,0.02416918429003021,0.027190332326283987,0.0,0.006042296072507553,0.015105740181268883,0.02416918429003021,0.027190332326283987,0.027190332326283987,0.0030211480362537764,0.02416918429003021,0.01812688821752266,0.021148036253776436,0.0,0.0030211480362537764,0.02416918429003021,0.015105740181268883,0.00906344410876133,0.012084592145015106,0.027190332326283987,0.02416918429003021,0.02416918429003021,0.021148036253776436,0.021148036253776436,0.02416918429003021,0.02416918429003021,0.02416918429003021,0.02416918429003021,0.02416918429003021,0.027190332326283987,0.027190332326283987,0.030211480362537766,0.030211480362537766,0.02416918429003021,0.027190332326283987,0.02416918429003021,0.02416918429003021,0.027190332326283987,0.02416918429003021,0.021148036253776436,0.0,0.015105740181268883
S13_D13 hbo,0.018072289156626505,0.0,0.02108433734939759,0.0,0.018072289156626505,0.02108433734939759,0.02108433734939759,0.024096385542168676,0.024096385542168676,0.02710843373493976,0.0030120481927710845,0.024096385542168676,0.02710843373493976,0.0,0.006024096385542169,0.015060240963855422,0.024096385542168676,0.02710843373493976,0.02710843373493976,0.0030120481927710845,0.024096385542168676,0.018072289156626505,0.02108433734939759,0.0,0.0030120481927710845,0.024096385542168676,0.015060240963855422,0.009036144578313253,0.012048192771084338,0.02710843373493976,0.024096385542168676,0.024096385542168676,0.02108433734939759,0.02108433734939759,0.024096385542168676,0.024096385542168676,0.024096385542168676,0.024096385542168676,0.024096385542168676,0.02710843373493976,0.02710843373493976,0.030120481927710843,0.03313253012048193,0.024096385542168676,0.02710843373493976,0.024096385542168676,0.024096385542168676,0.02710843373493976,0.024096385542168676,0.02108433734939759,0.0,0.015060240963855422
S13_D15 hbo,0.018072289156626505,0.0,0.02108433734939759,0.0,0.018072289156626505,0.02108433734939759,0.02108433734939759,0.024096385542168676,0.024096385542168676,0.02710843373493976,0.0030120481927710845,0.024096385542168676,0.02710843373493976,0.0,0.006024096385542169,0.015060240963855422,0.024096385542168676,0.02710843373493976,0.02710843373493976,0.0030120481927710845,0.024096385542168676,0.018072289156626505,0.02108433734939759,0.0,0.0030120481927710845,0.024096385542168676,0.015060240963855422,0.009036144578313253,0.012048192771084338,0.02710843373493976,0.024096385542168676,0.024096385542168676,0.02108433734939759,0.02108433734939759,0.024096385542168676,0.024096385542168676,0.024096385542168676,0.024096385542168676,0.024096385542168676,0.02710843373493976,0.02710843373493976,0.030120481927710843,0.03313253012048193,0.024096385542168676,0.02710843373493976,0.024096385542168676,0.024096385542168676,0.02710843373493976,0.024096385542168676,0.02108433734939759,0.0,0.015060240963855422
S14_D12 hbo,0.0182370820668693,0.0,0.02127659574468085,0.0,0.0182370820668693,0.02127659574468085,0.02127659574468085,0.0243161094224924,0.0243161094224924,0.02735562310030395,0.00303951367781155,0.0243161094224924,0.02735562310030395,0.0,0.0060790273556231,0.015197568389057751,0.0243161094224924,0.02735562310030395,0.02735562310030395,0.00303951367781155,0.0243161094224924,0.0182370820668693,0.02127659574468085,0.0,0.00303951367781155,0.0243161094224924,0.015197568389057751,0.00911854103343465,0.0121580547112462,0.02735562310030395,0.0243161094224924,0.0243161094224924,0.02127659574468085,0.02127659574468085,0.0243161094224924,0.0243161094224924,0.0243161094224924,0.0243161094224924,0.0243161094224924,0.02735562310030395,0.02735562310030395,0.02735562310030395,0.02735562310030395,0.0243161094224924,0.02735562310030395,0.0243161094224924,0.0243161094224924,0.02735562310030395,0.0243161094224924,0.02127659574468085,0.0,0.015197568389057751
S14_D13 hbo,0.01812688821752266,0.0,0.021148036253776436,0.0,0.01812688821752266,0.021148036253776436,0.021148036253776436,0.02416918429003021,0.02416918429003021,0.027190332326283987,0.0030211480362537764,0.02416918429003021,0.027190332326283987,0.0,0.006042296072507553,0.015105740181268883,0.02416918429003021,0.027190332326283987,0.027190332326283987,0.0030211480362537764,0.02416918429003021,0.01812688821752266,0.021148036253776436,0.0,0.0030211480362537764,0.02416918429003021,0.015105740181268883,0.00906344410876133,0.012084592145015106,0.027190332326283987,0.02416918429003021,0.02416918429003021,0.021148036253776436,0.021148036253776436,0.02416918429003021,0.02416918429003021,0.02416918429003021,0.02416918429003021,0.02416918429003021,0.027190332326283987,0.027190332326283987,0.030211480362537766,0.030211480362537766,0.02416918429003021,0.027190332326283987,0.02416918429003021,0.02416918429003021,0.027190332326283987,0.02416918429003021,0.021148036253776436,0.0,0.015105740181268883
S14_D14 hbo,0.0182370820668693,0.0,0.02127659574468085,0.0,0.0182370820668693,0.02127659574468085,0.02127659574468085,0.0243161094224924,0.0243161094224924,0.02735562310030395,0.00303951367781155,0.0243161094224924,0.02735562310030395,0.0,0.0060790273556231,0.015197568389057751,0.0243161094224924,0.02735562310030395,0.02735562310030395,0.00303951367781155,0.0243161094224924,0.0182370820668693,0.02127659574468085,0.0,0.00303951367781155,0.0243161094224924,0.015197568389057751,0.00911854103343465,0.0121580547112462,0.02735562310030395,0.0243161094224924,0.0243161094224924,0.02127659574468085,0.02127659574468085,0.0243161094224924,0.0243161094224924,0.0243161094224924,0.0243161094224924,0.0243161094224924,0.02735562310030395,0.02735562310030395,0.02735562310030395,0.02735562310030395,0.0243161094224924,0.02735562310030395,0.0243161094224924,0.0243161094224924,0.02735562310030395,0.0243161094224924,0.02127659574468085,0.0,0.015197568389057751
S14_D16 hbo,0.0182370820668693,0.0,0.02127659574468085,0.0,0.0182370820668693,0.02127659574468085,0.02127659574468085,0.0243161094224924,0.0243161094224924,0.02735562310030395,0.00303951367781155,0.0243161094224924,0.02735562310030395,0.0,0.0060790273556231,0.015197568389057751,0.0243161094224924,0.02735562310030395,0.02735562310030395,0.00303951367781155,0.0243161094224924,0.0182370820668693,0.02127659574468085,0.0,0.00303951367781155,0.0243161094224924,0.015197568389057751,0.00911854103343465,0.0121580547112462,0.02735562310030395,0.0243161094224924,0.0243161094224924,0.02127659574468085,0.02127659574468085,0.0243161094224924,0.0243161094224924,0.0243161094224924,0.0243161094224924,0.0243161094224924,0.02735562310030395,0.02735562310030395,0.02735562310030395,0.02735562310030395,0.0243161094224924,0.02735562310030395,0.0243161094224924,0.0243161094224924,0.02735562310030395,0.0243161094224924,0.02127659574468085,0.0,0.015197568389057751
S15_D13 hbo,0.01812688821752266,0.0,0.021148036253776436,0.0,0.01812688821752266,0.021148036253776436,0.021148036253776436,0.02416918429003021,0.02416918429003021,0.027190332326283987,0.0030211480362537764,0.02416918429003021,0.027190332326283987,0.0,0.006042296072507553,0.015105740181268883,0.02416918429003021,0.027190332326283987,0.027190332326283987,0.0030211480362537764,0.02416918429003021,0.01812688821752266,0.021148036253776436,0.0,0.0030211480362537764,0.02416918429003021,0.015105740181268883,0.00906344410876133,0.012084592145015106,0.027190332326283987,0.02416918429003021,0.02416918429003021,0.021148036253776436,0.021148036253776436,0.02416918429003021,0.02416918429003021,0.02416918429003021,0.02416918429003021,0.02416918429003021,0.027190332326283987,0.027190332326283987,0.030211480362537766,0.030211480362537766,0.02416918429003021,0.027190332326283987,0.02416918429003021,0.02416918429003021,0.027190332326283987,0.02416918429003021,0.021148036253776436,0.0,0.015105740181268883
S15_D15 hbo,0.0182370820668693,0.0,0.02127659574468085,0.0,0.0182370820668693,0.02127659574468085,0.02127659574468085,0.0243161094224924,0.0243161094224924,0.02735562310030395,0.00303951367781155,0.0243161094224924,0.02735562310030395,0.0,0.0060790273556231,0.015197568389057751,0.0243161094224924,0.02735562310030395,0.02735562310030395,0.00303951367781155,0.0243161094224924,0.0182370820668693,0.02127659574468085,0.0,0.00303951367781155,0.0243161094224924,0.015197568389057751,0.00911854103343465,0.0121580547112462,0.02735562310030395,0.0243161094224924,0.0243161094224924,0.02127659574468085,0.02127659574468085,0.0243161094224924,0.0243161094224924,0.0243161094224924,0.0243161094224924,0.0243161094224924,0.02735562310030395,0.02735562310030395,0.02735562310030395,0.02735562310030395,0.0243161094224924,0.02735562310030395,0.0243161094224924,0.0243161094224924,0.02735562310030395,0.0243161094224924,0.02127659574468085,0.0,0.015197568389057751
S15_D16 hbo,0.018867924528301886,0.0,0.0220125786163522,0.0,0.018867924528301886,0.0220125786163522,0.0220125786163522,0.025157232704402517,0.025157232704402517,0.025157232704402517,0.0031446540880503146,0.025157232704402517,0.025157232704402517,0.0,0.006289308176100629,0.015723270440251572,0.025157232704402517,0.025157232704402517,0.025157232704402517,0.0031446540880503146,0.025157232704402517,0.018867924528301886,0.0220125786163522,0.0,0.0031446540880503146,0.025157232704402517,0.015723270440251572,0.009433962264150943,0.012578616352201259,0.025157232704402517,0.025157232704402517,0.025157232704402517,0.0220125786163522,0.0220125786163522,0.025157232704402517,0.025157232704402517,0.025157232704402517,0.025157232704402517,0.025157232704402517,0.025157232704402517,0.025157232704402517,0.025157232704402517,0.025157232704402517,0.025157232704402517,0.025157232704402517,0.025157232704402517,0.025157232704402517,0.025157232704402517,0.025157232704402517,0.0220125786163522,0.0,0.015723270440251572
S16_D14 hbo,0.0,0.0,0.0,0.0,0.0,0.0,0.0,0.0,0.0,0.0,0.0,0.0,0.0,0.0,0.0,0.0,0.0,0.0,0.0,0.0,0.0,0.0,0.0,0.0,0.0,0.0,0.0,0.0,0.0,0.0,0.0,0.0,0.0,0.0,0.0,0.0,0.0,0.0,0.0,0.0,0.0,0.0,0.0,0.0,0.0,0.0,0.0,0.0,0.0,0.0,0.0,0.0
S16_D16 hbo,0.023529411764705882,0.0,0.023529411764705882,0.0,0.023529411764705882,0.023529411764705882,0.023529411764705882,0.023529411764705882,0.023529411764705882,0.023529411764705882,0.00392156862745098,0.023529411764705882,0.023529411764705882,0.0,0.00784313725490196,0.0196078431372549,0.023529411764705882,0.023529411764705882,0.023529411764705882,0.00392156862745098,0.023529411764705882,0.023529411764705882,0.023529411764705882,0.0,0.00392156862745098,0.023529411764705882,0.0196078431372549,0.011764705882352941,0.01568627450980392,0.023529411764705882,0.023529411764705882,0.023529411764705882,0.023529411764705882,0.023529411764705882,0.023529411764705882,0.023529411764705882,0.023529411764705882,0.023529411764705882,0.023529411764705882,0.023529411764705882,0.023529411764705882,0.023529411764705882,0.023529411764705882,0.023529411764705882,0.023529411764705882,0.023529411764705882,0.023529411764705882,0.023529411764705882,0.023529411764705882,0.023529411764705882,0.0,0.0196078431372549
