,S1_D1 hbo,S1_D3 hbo,S2_D1 hbo,S2_D2 hbo,S2_D4 hbo,S3_D1 hbo,S3_D3 hbo,S3_D4 hbo,S3_D5 hbo,S4_D2 hbo,S4_D4 hbo,S4_D6 hbo,S4_D11 hbo,S5_D3 hbo,S5_D5 hbo,S5_D7 hbo,S6_D4 hbo,S6_D5 hbo,S6_D6 hbo,S6_D8 hbo,S7_D5 hbo,S7_D7 hbo,S7_D8 hbo,S8_D6 hbo,S8_D8 hbo,S8_D15 hbo,S9_D2 hbo,S9_D9 hbo,S9_D11 hbo,S10_D9 hbo,S10_D10 hbo,S10_D12 hbo,S11_D9 hbo,S11_D11 hbo,S11_D12 hbo,S11_D13 hbo,S12_D10 hbo,S12_D12 hbo,S12_D14 hbo,S13_D6 hbo,S13_D11 hbo,S13_D13 hbo,S13_D15 hbo,S14_D12 hbo,S14_D13 hbo,S14_D14 hbo,S14_D16 hbo,S15_D13 hbo,S15_D15 hbo,S15_D16 hbo,S16_D14 hbo,S16_D16 hbo
S1_D1 hbo,0.022307692307692306,0.022307692307692306,0.022307692307692306,0.023076923076923078,0.021538461538461538,0.023076923076923078,0.02076923076923077,0.021538461538461538,0.02076923076923077,0.023076923076923078,0.018461538461538463,0.019230769230769232,0.021538461538461538,0.022307692307692306,0.018461538461538463,0.022307692307692306,0.019230769230769232,0.02,0.0,0.02,0.019230769230769232,0.02,0.02,0.019230769230769232,0.02,0.0,0.023076923076923078,0.023076923076923078,0.021538461538461538,0.023076923076923078,0.023076923076923078,0.02076923076923077,0.022307692307692306,0.0,0.022307692307692306,0.021538461538461538,0.022307692307692306,0.021538461538461538,0.023076923076923078,0.02,0.0,0.022307692307692306,0.0007692307692307692,0.021538461538461538,0.021538461538461538,0.022307692307692306,0.022307692307692306,0.02,0.013076923076923076,0.022307692307692306,0.022307692307692306,0.023076923076923078
S1_D3 hbo,0.022307692307692306,0.022307692307692306,0.022307692307692306,0.023076923076923078,0.021538461538461538,0.023076923076923078,0.02076923076923077,0.021538461538461538,0.02076923076923077,0.023076923076923078,0.018461538461538463,0.019230769230769232,0.021538461538461538,0.022307692307692306,0.018461538461538463,0.022307692307692306,0.019230769230769232,0.02,0.0,0.02,0.019230769230769232,0.02,0.02,0.019230769230769232,0.02,0.0,0.023076923076923078,0.023076923076923078,0.021538461538461538,0.023076923076923078,0.023076923076923078,0.02076923076923077,0.022307692307692306,0.0,0.022307692307692306,0.021538461538461538,0.022307692307692306,0.021538461538461538,0.023076923076923078,0.02,0.0,0.022307692307692306,0.0007692307692307692,0.021538461538461538,0.021538461538461538,0.022307692307692306,0.022307692307692306,0.02,0.013076923076923076,0.022307692307692306,0.022307692307692306,0.023076923076923078
S2_D1 hbo,0.022307692307692306,0.022307692307692306,0.022307692307692306,0.023076923076923078,0.021538461538461538,0.023076923076923078,0.02076923076923077,0.021538461538461538,0.02076923076923077,0.023076923076923078,0.018461538461538463,0.019230769230769232,0.021538461538461538,0.022307692307692306,0.018461538461538463,0.022307692307692306,0.019230769230769232,0.02,0.0,0.02,0.019230769230769232,0.02,0.02,0.019230769230769232,0.02,0.0,0.023076923076923078,0.023076923076923078,0.021538461538461538,0.023076923076923078,0.023076923076923078,0.02076923076923077,0.022307692307692306,0.0,0.022307692307692306,0.021538461538461538,0.022307692307692306,0.021538461538461538,0.023076923076923078,0.02,0.0,0.022307692307692306,0.0007692307692307692,0.021538461538461538,0.021538461538461538,0.022307692307692306,0.022307692307692306,0.02,0.013076923076923076,0.022307692307692306,0.022307692307692306,0.023076923076923078
S2_D2 hbo,0.022307692307692306,0.022307692307692306,0.022307692307692306,0.023076923076923078,0.021538461538461538,0.023076923076923078,0.02076923076923077,0.021538461538461538,0.02076923076923077,0.023076923076923078,0.018461538461538463,0.019230769230769232,0.021538461538461538,0.022307692307692306,0.018461538461538463,0.022307692307692306,0.019230769230769232,0.02,0.0,0.02,0.019230769230769232,0.02,0.02,0.019230769230769232,0.02,0.0,0.023076923076923078,0.023076923076923078,0.021538461538461538,0.023076923076923078,0.023076923076923078,0.02076923076923077,0.022307692307692306,0.0,0.022307692307692306,0.021538461538461538,0.022307692307692306,0.021538461538461538,0.023076923076923078,0.02,0.0,0.022307692307692306,0.0007692307692307692,0.021538461538461538,0.021538461538461538,0.022307692307692306,0.022307692307692306,0.02,0.013076923076923076,0.022307692307692306,0.022307692307692306,0.023076923076923078
S2_D4 hbo,0.022463206816421378,0.022463206816421378,0.022463206816421378,0.022463206816421378,0.021688613477924088,0.022463206816421378,0.020914020139426802,0.021688613477924088,0.020914020139426802,0.022463206816421378,0.018590240123934933,0.019364833462432222,0.021688613477924088,0.022463206816421378,0.018590240123934933,0.022463206816421378,0.019364833462432222,0.020139426800929512,0.0,0.020139426800929512,0.019364833462432222,0.020139426800929512,0.020139426800929512,0.019364833462432222,0.020139426800929512,0.0,0.022463206816421378,0.022463206816421378,0.021688613477924088,0.022463206816421378,0.022463206816421378,0.020914020139426802,0.022463206816421378,0.0,0.022463206816421378,0.021688613477924088,0.022463206816421378,0.021688613477924088,0.022463206816421378,0.020139426800929512,0.0,0.022463206816421378,0.000774593338497289,0.021688613477924088,0.021688613477924088,0.022463206816421378,0.022463206816421378,0.020139426800929512,0.013168086754453912,0.022463206816421378,0.022463206816421378,0.022463206816421378
S3_D1 hbo,0.022307692307692306,0.022307692307692306,0.022307692307692306,0.023076923076923078,0.021538461538461538,0.023076923076923078,0.02076923076923077,0.021538461538461538,0.02076923076923077,0.023076923076923078,0.018461538461538463,0.019230769230769232,0.021538461538461538,0.022307692307692306,0.018461538461538463,0.022307692307692306,0.019230769230769232,0.02,0.0,0.02,0.019230769230769232,0.02,0.02,0.019230769230769232,0.02,0.0,0.023076923076923078,0.023076923076923078,0.021538461538461538,0.023076923076923078,0.023076923076923078,0.02076923076923077,0.022307692307692306,0.0,0.022307692307692306,0.021538461538461538,0.022307692307692306,0.021538461538461538,0.023076923076923078,0.02,0.0,0.022307692307692306,0.0007692307692307692,0.021538461538461538,0.021538461538461538,0.022307692307692306,0.022307692307692306,0.02,0.013076923076923076,0.022307692307692306,0.022307692307692306,0.023076923076923078
S3_D3 hbo,0.02206461780929866,0.02206461780929866,0.02206461780929866,0.02206461780929866,0.02206461780929866,0.02206461780929866,0.02127659574468085,0.02206461780929866,0.02127659574468085,0.02206461780929866,0.018912529550827423,0.019700551615445233,0.02206461780929866,0.02206461780929866,0.018912529550827423,0.02206461780929866,0.019700551615445233,0.02048857368006304,0.0,0.02048857368006304,0.019700551615445233,0.02048857368006304,0.02048857368006304,0.019700551615445233,0.02048857368006304,0.0,0.02206461780929866,0.02206461780929866,0.02206461780929866,0.02206461780929866,0.02206461780929866,0.02127659574468085,0.02206461780929866,0.0,0.02206461780929866,0.02206461780929866,0.02206461780929866,0.02206461780929866,0.02206461780929866,0.02048857368006304,0.0,0.02206461780929866,0.0007880220646178094,0.02206461780929866,0.02206461780929866,0.02206461780929866,0.02206461780929866,0.02048857368006304,0.013396375098502758,0.02206461780929866,0.02206461780929866,0.02206461780929866
S3_D4 hbo,0.022463206816421378,0.022463206816421378,0.022463206816421378,0.022463206816421378,0.021688613477924088,0.022463206816421378,0.020914020139426802,0.021688613477924088,0.020914020139426802,0.022463206816421378,0.018590240123934933,0.019364833462432222,0.021688613477924088,0.022463206816421378,0.018590240123934933,0.022463206816421378,0.019364833462432222,0.020139426800929512,0.0,0.020139426800929512,0.019364833462432222,0.020139426800929512,0.020139426800929512,0.019364833462432222,0.020139426800929512,0.0,0.022463206816421378,0.022463206816421378,0.021688613477924088,0.022463206816421378,0.022463206816421378,0.020914020139426802,0.022463206816421378,0.0,0.022463206816421378,0.021688613477924088,0.022463206816421378,0.021688613477924088,0.022463206816421378,0.020139426800929512,0.0,0.022463206816421378,0.000774593338497289,0.021688613477924088,0.021688613477924088,0.022463206816421378,0.022463206816421378,0.020139426800929512,0.013168086754453912,0.022463206816421378,0.022463206816421378,0.022463206816421378
S3_D5 hbo,0.022058823529411766,0.022058823529411766,0.022058823529411766,0.022058823529411766,0.022058823529411766,0.022058823529411766,0.021241830065359478,0.022058823529411766,0.021241830065359478,0.022058823529411766,0.018790849673202614,0.0196078431372549,0.022058823529411766,0.022058823529411766,0.018790849673202614,0.022058823529411766,0.0196078431372549,0.02042483660130719,0.0,0.02042483660130719,0.0196078431372549,0.02042483660130719,0.02042483660130719,0.0196078431372549,0.02042483660130719,0.0,0.022058823529411766,0.022058823529411766,0.022058823529411766,0.022058823529411766,0.022058823529411766,0.021241830065359478,0.022058823529411766,0.0,0.022058823529411766,0.022058823529411766,0.022058823529411766,0.022058823529411766,0.022058823529411766,0.02042483660130719,0.0,0.022058823529411766,0.0008169934640522876,0.022058823529411766,0.022058823529411766,0.022058823529411766,0.022058823529411766,0.021241830065359478,0.013888888888888888,0.022058823529411766,0.022058823529411766,0.022058823529411766
S4_D2 hbo,0.022307692307692306,0.022307692307692306,0.022307692307692306,0.023076923076923078,0.021538461538461538,0.023076923076923078,0.02076923076923077,0.021538461538461538,0.02076923076923077,0.023076923076923078,0.018461538461538463,0.019230769230769232,0.021538461538461538,0.022307692307692306,0.018461538461538463,0.022307692307692306,0.019230769230769232,0.02,0.0,0.02,0.019230769230769232,0.02,0.02,0.019230769230769232,0.02,0.0,0.023076923076923078,0.023076923076923078,0.021538461538461538,0.023076923076923078,0.023076923076923078,0.02076923076923077,0.022307692307692306,0.0,0.022307692307692306,0.021538461538461538,0.022307692307692306,0.021538461538461538,0.023076923076923078,0.02,0.0,0.022307692307692306,0.0007692307692307692,0.021538461538461538,0.021538461538461538,0.022307692307692306,0.022307692307692306,0.02,0.013076923076923076,0.022307692307692306,0.022307692307692306,0.023076923076923078
S4_D4 hbo,0.02142857142857143,0.02142857142857143,0.02142857142857143,0.02142857142857143,0.02142857142857143,0.02142857142857143,0.02142857142857143,0.02142857142857143,0.02142857142857143,0.02142857142857143,0.020535714285714286,0.02142857142857143,0.02142857142857143,0.02142857142857143,0.020535714285714286,0.02142857142857143,0.02142857142857143,0.02142857142857143,0.0,0.02142857142857143,0.02142857142857143,0.02142857142857143,0.02142857142857143,0.02142857142857143,0.02142857142857143,0.0,0.02142857142857143,0.02142857142857143,0.02142857142857143,0.02142857142857143,0.02142857142857143,0.02142857142857143,0.02142857142857143,0.0,0.02142857142857143,0.02142857142857143,0.02142857142857143,0.02142857142857143,0.02142857142857143,0.02142857142857143,0.0,0.02142857142857143,0.0008928571428571428,0.02142857142857143,0.02142857142857143,0.02142857142857143,0.02142857142857143,0.02142857142857143,0.015178571428571428,0.02142857142857143,0.02142857142857143,0.02142857142857143
S4_D6 hbo,0.021551724137931036,0.021551724137931036,0.021551724137931036,0.021551724137931036,0.021551724137931036,0.021551724137931036,0.021551724137931036,0.021551724137931036,0.021551724137931036,0.021551724137931036,0.019827586206896553,0.020689655172413793,0.021551724137931036,0.021551724137931036,0.019827586206896553,0.021551724137931036,0.020689655172413793,0.021551724137931036,0.0,0.021551724137931036,0.020689655172413793,0.021551724137931036,0.021551724137931036,0.020689655172413793,0.021551724137931036,0.0,0.021551724137931036,0.021551724137931036,0.021551724137931036,0.021551724137931036,0.021551724137931036,0.021551724137931036,0.021551724137931036,0.0,0.021551724137931036,0.021551724137931036,0.021551724137931036,0.021551724137931036,0.021551724137931036,0.021551724137931036,0.0,0.021551724137931036,0.0008620689655172414,0.021551724137931036,0.021551724137931036,0.021551724137931036,0.021551724137931036,0.021551724137931036,0.014655172413793103,0.021551724137931036,0.021551724137931036,0.021551724137931036
S4_D11 hbo,0.022463206816421378,0.022463206816421378,0.022463206816421378,0.022463206816421378,0.021688613477924088,0.022463206816421378,0.020914020139426802,0.021688613477924088,0.020914020139426802,0.022463206816421378,0.018590240123934933,0.019364833462432222,0.021688613477924088,0.022463206816421378,0.018590240123934933,0.022463206816421378,0.019364833462432222,0.020139426800929512,0.0,0.020139426800929512,0.019364833462432222,0.020139426800929512,0.020139426800929512,0.019364833462432222,0.020139426800929512,0.0,0.022463206816421378,0.022463206816421378,0.021688613477924088,0.022463206816421378,0.022463206816421378,0.020914020139426802,0.022463206816421378,0.0,0.022463206816421378,0.021688613477924088,0.022463206816421378,0.021688613477924088,0.022463206816421378,0.020139426800929512,0.0,0.022463206816421378,0.000774593338497289,0.021688613477924088,0.021688613477924088,0.022463206816421378,0.022463206816421378,0.020139426800929512,0.013168086754453912,0.022463206816421378,0.022463206816421378,0.022463206816421378
S5_D3 hbo,0.022307692307692306,0.022307692307692306,0.022307692307692306,0.023076923076923078,0.021538461538461538,0.023076923076923078,0.02076923076923077,0.021538461538461538,0.02076923076923077,0.023076923076923078,0.018461538461538463,0.019230769230769232,0.021538461538461538,0.022307692307692306,0.018461538461538463,0.022307692307692306,0.019230769230769232,0.02,0.0,0.02,0.019230769230769232,0.02,0.02,0.019230769230769232,0.02,0.0,0.023076923076923078,0.023076923076923078,0.021538461538461538,0.023076923076923078,0.023076923076923078,0.02076923076923077,0.022307692307692306,0.0,0.022307692307692306,0.021538461538461538,0.022307692307692306,0.021538461538461538,0.023076923076923078,0.02,0.0,0.022307692307692306,0.0007692307692307692,0.021538461538461538,0.021538461538461538,0.022307692307692306,0.022307692307692306,0.02,0.013076923076923076,0.022307692307692306,0.022307692307692306,0.023076923076923078
S5_D5 hbo,0.02142857142857143,0.02142857142857143,0.02142857142857143,0.02142857142857143,0.02142857142857143,0.02142857142857143,0.02142857142857143,0.02142857142857143,0.02142857142857143,0.02142857142857143,0.020535714285714286,0.02142857142857143,0.02142857142857143,0.02142857142857143,0.020535714285714286,0.02142857142857143,0.02142857142857143,0.02142857142857143,0.0,0.02142857142857143,0.02142857142857143,0.02142857142857143,0.02142857142857143,0.02142857142857143,0.02142857142857143,0.0,0.02142857142857143,0.02142857142857143,0.02142857142857143,0.02142857142857143,0.02142857142857143,0.02142857142857143,0.02142857142857143,0.0,0.02142857142857143,0.02142857142857143,0.02142857142857143,0.02142857142857143,0.02142857142857143,0.02142857142857143,0.0,0.02142857142857143,0.0008928571428571428,0.02142857142857143,0.02142857142857143,0.02142857142857143,0.02142857142857143,0.02142857142857143,0.015178571428571428,0.02142857142857143,0.02142857142857143,0.02142857142857143
S5_D7 hbo,0.022307692307692306,0.022307692307692306,0.022307692307692306,0.023076923076923078,0.021538461538461538,0.023076923076923078,0.02076923076923077,0.021538461538461538,0.02076923076923077,0.023076923076923078,0.018461538461538463,0.019230769230769232,0.021538461538461538,0.022307692307692306,0.018461538461538463,0.022307692307692306,0.019230769230769232,0.02,0.0,0.02,0.019230769230769232,0.02,0.02,0.019230769230769232,0.02,0.0,0.023076923076923078,0.023076923076923078,0.021538461538461538,0.023076923076923078,0.023076923076923078,0.02076923076923077,0.022307692307692306,0.0,0.022307692307692306,0.021538461538461538,0.022307692307692306,0.021538461538461538,0.023076923076923078,0.02,0.0,0.022307692307692306,0.0007692307692307692,0.021538461538461538,0.021538461538461538,0.022307692307692306,0.022307692307692306,0.02,0.013076923076923076,0.022307692307692306,0.022307692307692306,0.023076923076923078
S6_D4 hbo,0.021551724137931036,0.021551724137931036,0.021551724137931036,0.021551724137931036,0.021551724137931036,0.021551724137931036,0.021551724137931036,0.021551724137931036,0.021551724137931036,0.021551724137931036,0.019827586206896553,0.020689655172413793,0.021551724137931036,0.021551724137931036,0.019827586206896553,0.021551724137931036,0.020689655172413793,0.021551724137931036,0.0,0.021551724137931036,0.020689655172413793,0.021551724137931036,0.021551724137931036,0.020689655172413793,0.021551724137931036,0.0,0.021551724137931036,0.021551724137931036,0.021551724137931036,0.021551724137931036,0.021551724137931036,0.021551724137931036,0.021551724137931036,0.0,0.021551724137931036,0.021551724137931036,0.021551724137931036,0.021551724137931036,0.021551724137931036,0.021551724137931036,0.0,0.021551724137931036,0.0008620689655172414,0.021551724137931036,0.021551724137931036,0.021551724137931036,0.021551724137931036,0.021551724137931036,0.014655172413793103,0.021551724137931036,0.021551724137931036,0.021551724137931036
S6_D5 hbo,0.021791767554479417,0.021791767554479417,0.021791767554479417,0.021791767554479417,0.021791767554479417,0.021791767554479417,0.021791767554479417,0.021791767554479417,0.021791767554479417,0.021791767554479417,0.01937046004842615,0.020177562550443905,0.021791767554479417,0.021791767554479417,0.01937046004842615,0.021791767554479417,0.020177562550443905,0.020984665052461663,0.0,0.020984665052461663,0.020177562550443905,0.020984665052461663,0.020984665052461663,0.020177562550443905,0.020984665052461663,0.0,0.021791767554479417,0.021791767554479417,0.021791767554479417,0.021791767554479417,0.021791767554479417,0.021791767554479417,0.021791767554479417,0.0,0.021791767554479417,0.021791767554479417,0.021791767554479417,0.021791767554479417,0.021791767554479417,0.020984665052461663,0.0,0.021791767554479417,0.0008071025020177562,0.021791767554479417,0.021791767554479417,0.021791767554479417,0.021791767554479417,0.020984665052461663,0.013720742534301856,0.021791767554479417,0.021791767554479417,0.021791767554479417
S6_D6 hbo,0.0,0.0,0.0,0.0,0.0,0.0,0.0,0.0,0.0,0.0,0.0,0.0,0.0,0.0,0.0,0.0,0.0,0.0,0.0,0.0,0.0,0.0,0.0,0.0,0.0,0.0,0.0,0.0,0.0,0.0,0.0,0.0,0.0,0.0,0.0,0.0,0.0,0.0,0.0,0.0,0.0,0.0,0.0,0.0,0.0,0.0,0.0,0.0,0.0,0.0,0.0,0.0
S6_D8 hbo,0.021791767554479417,0.021791767554479417,0.021791767554479417,0.021791767554479417,0.021791767554479417,0.021791767554479417,0.021791767554479417,0.021791767554479417,0.021791767554479417,0.021791767554479417,0.01937046004842615,0.020177562550443905,0.021791767554479417,0.021791767554479417,0.01937046004842615,0.021791767554479417,0.020177562550443905,0.020984665052461663,0.0,0.020984665052461663,0.020177562550443905,0.020984665052461663,0.020984665052461663,0.020177562550443905,0.020984665052461663,0.0,0.021791767554479417,0.021791767554479417,0.021791767554479417,0.021791767554479417,0.021791767554479417,0.021791767554479417,0.021791767554479417,0.0,0.021791767554479417,0.021791767554479417,0.021791767554479417,0.021791767554479417,0.021791767554479417,0.020984665052461663,0.0,0.021791767554479417,0.0008071025020177562,0.021791767554479417,0.021791767554479417,0.021791767554479417,0.021791767554479417,0.020984665052461663,0.013720742534301856,0.021791767554479417,0.021791767554479417,0.021791767554479417
S7_D5 hbo,0.021551724137931036,0.021551724137931036,0.021551724137931036,0.021551724137931036,0.021551724137931036,0.021551724137931036,0.021551724137931036,0.021551724137931036,0.021551724137931036,0.021551724137931036,0.019827586206896553,0.020689655172413793,0.021551724137931036,0.021551724137931036,0.019827586206896553,0.021551724137931036,0.020689655172413793,0.021551724137931036,0.0,0.021551724137931036,0.020689655172413793,0.021551724137931036,0.021551724137931036,0.020689655172413793,0.021551724137931036,0.0,0.021551724137931036,0.021551724137931036,0.021551724137931036,0.021551724137931036,0.021551724137931036,0.021551724137931036,0.021551724137931036,0.0,0.021551724137931036,0.021551724137931036,0.021551724137931036,0.021551724137931036,0.021551724137931036,0.021551724137931036,0.0,0.021551724137931036,0.0008620689655172414,0.021551724137931036,0.021551724137931036,0.021551724137931036,0.021551724137931036,0.021551724137931036,0.014655172413793103,0.021551724137931036,0.021551724137931036,0.021551724137931036
S7_D7 hbo,0.021791767554479417,0.021791767554479417,0.021791767554479417,0.021791767554479417,0.021791767554479417,0.021791767554479417,0.021791767554479417,0.021791767554479417,0.021791767554479417,0.021791767554479417,0.01937046004842615,0.020177562550443905,0.021791767554479417,0.021791767554479417,0.01937046004842615,0.021791767554479417,0.020177562550443905,0.020984665052461663,0.0,0.020984665052461663,0.020177562550443905,0.020984665052461663,0.020984665052461663,0.020177562550443905,0.020984665052461663,0.0,0.021791767554479417,0.021791767554479417,0.021791767554479417,0.021791767554479417,0.021791767554479417,0.021791767554479417,0.021791767554479417,0.0,0.021791767554479417,0.021791767554479417,0.021791767554479417,0.021791767554479417,0.021791767554479417,0.020984665052461663,0.0,0.021791767554479417,0.0008071025020177562,0.021791767554479417,0.021791767554479417,0.021791767554479417,0.021791767554479417,0.020984665052461663,0.013720742534301856,0.021791767554479417,0.021791767554479417,0.021791767554479417
S7_D8 hbo,0.021775544388609715,0.021775544388609715,0.021775544388609715,0.021775544388609715,0.021775544388609715,0.021775544388609715,0.021775544388609715,0.021775544388609715,0.021775544388609715,0.021775544388609715,0.019262981574539362,0.020100502512562814,0.021775544388609715,0.021775544388609715,0.019262981574539362,0.021775544388609715,0.020100502512562814,0.020938023450586266,0.0,0.020938023450586266,0.020100502512562814,0.020938023450586266,0.020938023450586266,0.020100502512562814,0.020938023450586266,0.0,0.021775544388609715,0.021775544388609715,0.021775544388609715,0.021775544388609715,0.021775544388609715,0.021775544388609715,0.021775544388609715,0.0,0.021775544388609715,0.021775544388609715,0.021775544388609715,0.021775544388609715,0.021775544388609715,0.020938023450586266,0.0,0.021775544388609715,0.0008375209380234506,0.021775544388609715,0.021775544388609715,0.021775544388609715,0.021775544388609715,0.021775544388609715,0.01423785594639866,0.021775544388609715,0.021775544388609715,0.021775544388609715
S8_D6 hbo,0.021551724137931036,0.021551724137931036,0.021551724137931036,0.021551724137931036,0.021551724137931036,0.021551724137931036,0.021551724137931036,0.021551724137931036,0.021551724137931036,0.021551724137931036,0.019827586206896553,0.020689655172413793,0.021551724137931036,0.021551724137931036,0.019827586206896553,0.021551724137931036,0.020689655172413793,0.021551724137931036,0.0,0.021551724137931036,0.020689655172413793,0.021551724137931036,0.021551724137931036,0.020689655172413793,0.021551724137931036,0.0,0.021551724137931036,0.021551724137931036,0.021551724137931036,0.021551724137931036,0.021551724137931036,0.021551724137931036,0.021551724137931036,0.0,0.021551724137931036,0.021551724137931036,0.021551724137931036,0.021551724137931036,0.021551724137931036,0.021551724137931036,0.0,0.021551724137931036,0.0008620689655172414,0.021551724137931036,0.021551724137931036,0.021551724137931036,0.021551724137931036,0.021551724137931036,0.014655172413793103,0.021551724137931036,0.021551724137931036,0.021551724137931036
S8_D8 hbo,0.021791767554479417,0.021791767554479417,0.021791767554479417,0.021791767554479417,0.021791767554479417,0.021791767554479417,0.021791767554479417,0.021791767554479417,0.021791767554479417,0.021791767554479417,0.01937046004842615,0.020177562550443905,0.021791767554479417,0.021791767554479417,0.01937046004842615,0.021791767554479417,0.020177562550443905,0.020984665052461663,0.0,0.020984665052461663,0.020177562550443905,0.020984665052461663,0.020984665052461663,0.020177562550443905,0.020984665052461663,0.0,0.021791767554479417,0.021791767554479417,0.021791767554479417,0.021791767554479417,0.021791767554479417,0.021791767554479417,0.021791767554479417,0.0,0.021791767554479417,0.021791767554479417,0.021791767554479417,0.021791767554479417,0.021791767554479417,0.020984665052461663,0.0,0.021791767554479417,0.0008071025020177562,0.021791767554479417,0.021791767554479417,0.021791767554479417,0.021791767554479417,0.020984665052461663,0.013720742534301856,0.021791767554479417,0.021791767554479417,0.021791767554479417
S8_D15 hbo,0.0,0.0,0.0,0.0,0.0,0.0,0.0,0.0,0.0,0.0,0.0,0.0,0.0,0.0,0.0,0.0,0.0,0.0,0.0,0.0,0.0,0.0,0.0,0.0,0.0,0.0,0.0,0.0,0.0,0.0,0.0,0.0,0.0,0.0,0.0,0.0,0.0,0.0,0.0,0.0,0.0,0.0,0.0,0.0,0.0,0.0,0.0,0.0,0.0,0.0,0.0,0.0
S9_D2 hbo,0.022307692307692306,0.022307692307692306,0.022307692307692306,0.023076923076923078,0.021538461538461538,0.023076923076923078,0.02076923076923077,0.021538461538461538,0.02076923076923077,0.023076923076923078,0.018461538461538463,0.019230769230769232,0.021538461538461538,0.022307692307692306,0.018461538461538463,0.022307692307692306,0.019230769230769232,0.02,0.0,0.02,0.019230769230769232,0.02,0.02,0.019230769230769232,0.02,0.0,0.023076923076923078,0.023076923076923078,0.021538461538461538,0.023076923076923078,0.023076923076923078,0.02076923076923077,0.022307692307692306,0.0,0.022307692307692306,0.021538461538461538,0.022307692307692306,0.021538461538461538,0.023076923076923078,0.02,0.0,0.022307692307692306,0.0007692307692307692,0.021538461538461538,0.021538461538461538,0.022307692307692306,0.022307692307692306,0.02,0.013076923076923076,0.022307692307692306,0.022307692307692306,0.023076923076923078
S9_D9 hbo,0.022307692307692306,0.022307692307692306,0.022307692307692306,0.023076923076923078,0.021538461538461538,0.023076923076923078,0.02076923076923077,0.021538461538461538,0.02076923076923077,0.023076923076923078,0.018461538461538463,0.019230769230769232,0.021538461538461538,0.022307692307692306,0.018461538461538463,0.022307692307692306,0.019230769230769232,0.02,0.0,0.02,0.019230769230769232,0.02,0.02,0.019230769230769232,0.02,0.0,0.023076923076923078,0.023076923076923078,0.021538461538461538,0.023076923076923078,0.023076923076923078,0.02076923076923077,0.022307692307692306,0.0,0.022307692307692306,0.021538461538461538,0.022307692307692306,0.021538461538461538,0.023076923076923078,0.02,0.0,0.022307692307692306,0.0007692307692307692,0.021538461538461538,0.021538461538461538,0.022307692307692306,0.022307692307692306,0.02,0.013076923076923076,0.022307692307692306,0.022307692307692306,0.023076923076923078
S9_D11 hbo,0.02247191011235955,0.02247191011235955,0.02247191011235955,0.02247191011235955,0.021669341894060994,0.02247191011235955,0.02086677367576244,0.021669341894060994,0.02086677367576244,0.02247191011235955,0.018459069020866775,0.019261637239165328,0.021669341894060994,0.02247191011235955,0.018459069020866775,0.02247191011235955,0.019261637239165328,0.020064205457463884,0.0,0.020064205457463884,0.019261637239165328,0.020064205457463884,0.020064205457463884,0.019261637239165328,0.020064205457463884,0.0,0.02247191011235955,0.02247191011235955,0.021669341894060994,0.02247191011235955,0.02247191011235955,0.02086677367576244,0.02247191011235955,0.0,0.02247191011235955,0.021669341894060994,0.02247191011235955,0.021669341894060994,0.02247191011235955,0.020064205457463884,0.0,0.02247191011235955,0.0008025682182985554,0.021669341894060994,0.021669341894060994,0.02247191011235955,0.02247191011235955,0.02086677367576244,0.013643659711075442,0.02247191011235955,0.02247191011235955,0.02247191011235955
S10_D9 hbo,0.022307692307692306,0.022307692307692306,0.022307692307692306,0.023076923076923078,0.021538461538461538,0.023076923076923078,0.02076923076923077,0.021538461538461538,0.02076923076923077,0.023076923076923078,0.018461538461538463,0.019230769230769232,0.021538461538461538,0.022307692307692306,0.018461538461538463,0.022307692307692306,0.019230769230769232,0.02,0.0,0.02,0.019230769230769232,0.02,0.02,0.019230769230769232,0.02,0.0,0.023076923076923078,0.023076923076923078,0.021538461538461538,0.023076923076923078,0.023076923076923078,0.02076923076923077,0.022307692307692306,0.0,0.022307692307692306,0.021538461538461538,0.022307692307692306,0.021538461538461538,0.023076923076923078,0.02,0.0,0.022307692307692306,0.0007692307692307692,0.021538461538461538,0.021538461538461538,0.022307692307692306,0.022307692307692306,0.02,0.013076923076923076,0.022307692307692306,0.022307692307692306,0.023076923076923078
S10_D10 hbo,0.022307692307692306,0.022307692307692306,0.022307692307692306,0.023076923076923078,0.021538461538461538,0.023076923076923078,0.02076923076923077,0.021538461538461538,0.02076923076923077,0.023076923076923078,0.018461538461538463,0.019230769230769232,0.021538461538461538,0.022307692307692306,0.018461538461538463,0.022307692307692306,0.019230769230769232,0.02,0.0,0.02,0.019230769230769232,0.02,0.02,0.019230769230769232,0.02,0.0,0.023076923076923078,0.023076923076923078,0.021538461538461538,0.023076923076923078,0.023076923076923078,0.02076923076923077,0.022307692307692306,0.0,0.022307692307692306,0.021538461538461538,0.022307692307692306,0.021538461538461538,0.023076923076923078,0.02,0.0,0.022307692307692306,0.0007692307692307692,0.021538461538461538,0.021538461538461538,0.022307692307692306,0.022307692307692306,0.02,0.013076923076923076,0.022307692307692306,0.022307692307692306,0.023076923076923078
S10_D12 hbo,0.02206461780929866,0.02206461780929866,0.02206461780929866,0.02206461780929866,0.02206461780929866,0.02206461780929866,0.02127659574468085,0.02206461780929866,0.02127659574468085,0.02206461780929866,0.018912529550827423,0.019700551615445233,0.02206461780929866,0.02206461780929866,0.018912529550827423,0.02206461780929866,0.019700551615445233,0.02048857368006304,0.0,0.02048857368006304,0.019700551615445233,0.02048857368006304,0.02048857368006304,0.019700551615445233,0.02048857368006304,0.0,0.02206461780929866,0.02206461780929866,0.02206461780929866,0.02206461780929866,0.02206461780929866,0.02127659574468085,0.02206461780929866,0.0,0.02206461780929866,0.02206461780929866,0.02206461780929866,0.02206461780929866,0.02206461780929866,0.02048857368006304,0.0,0.02206461780929866,0.0007880220646178094,0.02206461780929866,0.02206461780929866,0.02206461780929866,0.02206461780929866,0.02048857368006304,0.013396375098502758,0.02206461780929866,0.02206461780929866,0.02206461780929866
S11_D9 hbo,0.022307692307692306,0.022307692307692306,0.022307692307692306,0.023076923076923078,0.021538461538461538,0.023076923076923078,0.02076923076923077,0.021538461538461538,0.02076923076923077,0.023076923076923078,0.018461538461538463,0.019230769230769232,0.021538461538461538,0.022307692307692306,0.018461538461538463,0.022307692307692306,0.019230769230769232,0.02,0.0,0.02,0.019230769230769232,0.02,0.02,0.019230769230769232,0.02,0.0,0.023076923076923078,0.023076923076923078,0.021538461538461538,0.023076923076923078,0.023076923076923078,0.02076923076923077,0.022307692307692306,0.0,0.022307692307692306,0.021538461538461538,0.022307692307692306,0.021538461538461538,0.023076923076923078,0.02,0.0,0.022307692307692306,0.0007692307692307692,0.021538461538461538,0.021538461538461538,0.022307692307692306,0.022307692307692306,0.02,0.013076923076923076,0.022307692307692306,0.022307692307692306,0.023076923076923078
S11_D11 hbo,0.0,0.0,0.0,0.0,0.0,0.0,0.0,0.0,0.0,0.0,0.0,0.0,0.0,0.0,0.0,0.0,0.0,0.0,0.0,0.0,0.0,0.0,0.0,0.0,0.0,0.0,0.0,0.0,0.0,0.0,0.0,0.0,0.0,0.0,0.0,0.0,0.0,0.0,0.0,0.0,0.0,0.0,0.0,0.0,0.0,0.0,0.0,0.0,0.0,0.0,0.0,0.0
S11_D12 hbo,0.022307692307692306,0.022307692307692306,0.022307692307692306,0.023076923076923078,0.021538461538461538,0.023076923076923078,0.02076923076923077,0.021538461538461538,0.02076923076923077,0.023076923076923078,0.018461538461538463,0.019230769230769232,0.021538461538461538,0.022307692307692306,0.018461538461538463,0.022307692307692306,0.019230769230769232,0.02,0.0,0.02,0.019230769230769232,0.02,0.02,0.019230769230769232,0.02,0.0,0.023076923076923078,0.023076923076923078,0.021538461538461538,0.023076923076923078,0.023076923076923078,0.02076923076923077,0.022307692307692306,0.0,0.022307692307692306,0.021538461538461538,0.022307692307692306,0.021538461538461538,0.023076923076923078,0.02,0.0,0.022307692307692306,0.0007692307692307692,0.021538461538461538,0.021538461538461538,0.022307692307692306,0.022307692307692306,0.02,0.013076923076923076,0.022307692307692306,0.022307692307692306,0.023076923076923078
S11_D13 hbo,0.022463206816421378,0.022463206816421378,0.022463206816421378,0.022463206816421378,0.021688613477924088,0.022463206816421378,0.020914020139426802,0.021688613477924088,0.020914020139426802,0.022463206816421378,0.018590240123934933,0.019364833462432222,0.021688613477924088,0.022463206816421378,0.018590240123934933,0.022463206816421378,0.019364833462432222,0.020139426800929512,0.0,0.020139426800929512,0.019364833462432222,0.020139426800929512,0.020139426800929512,0.019364833462432222,0.020139426800929512,0.0,0.022463206816421378,0.022463206816421378,0.021688613477924088,0.022463206816421378,0.022463206816421378,0.020914020139426802,0.022463206816421378,0.0,0.022463206816421378,0.021688613477924088,0.022463206816421378,0.021688613477924088,0.022463206816421378,0.020139426800929512,0.0,0.022463206816421378,0.000774593338497289,0.021688613477924088,0.021688613477924088,0.022463206816421378,0.022463206816421378,0.020139426800929512,0.013168086754453912,0.022463206816421378,0.022463206816421378,0.022463206816421378
S12_D10 hbo,0.022307692307692306,0.022307692307692306,0.022307692307692306,0.023076923076923078,0.021538461538461538,0.023076923076923078,0.02076923076923077,0.021538461538461538,0.02076923076923077,0.023076923076923078,0.018461538461538463,0.019230769230769232,0.021538461538461538,0.022307692307692306,0.018461538461538463,0.022307692307692306,0.019230769230769232,0.02,0.0,0.02,0.019230769230769232,0.02,0.02,0.019230769230769232,0.02,0.0,0.023076923076923078,0.023076923076923078,0.021538461538461538,0.023076923076923078,0.023076923076923078,0.02076923076923077,0.022307692307692306,0.0,0.022307692307692306,0.021538461538461538,0.022307692307692306,0.021538461538461538,0.023076923076923078,0.02,0.0,0.022307692307692306,0.0007692307692307692,0.021538461538461538,0.021538461538461538,0.022307692307692306,0.022307692307692306,0.02,0.013076923076923076,0.022307692307692306,0.022307692307692306,0.023076923076923078
S12_D12 hbo,0.022463206816421378,0.022463206816421378,0.022463206816421378,0.022463206816421378,0.021688613477924088,0.022463206816421378,0.020914020139426802,0.021688613477924088,0.020914020139426802,0.022463206816421378,0.018590240123934933,0.019364833462432222,0.021688613477924088,0.022463206816421378,0.018590240123934933,0.022463206816421378,0.019364833462432222,0.020139426800929512,0.0,0.020139426800929512,0.019364833462432222,0.020139426800929512,0.020139426800929512,0.019364833462432222,0.020139426800929512,0.0,0.022463206816421378,0.022463206816421378,0.021688613477924088,0.022463206816421378,0.022463206816421378,0.020914020139426802,0.022463206816421378,0.0,0.022463206816421378,0.021688613477924088,0.022463206816421378,0.021688613477924088,0.022463206816421378,0.020139426800929512,0.0,0.022463206816421378,0.000774593338497289,0.021688613477924088,0.021688613477924088,0.022463206816421378,0.022463206816421378,0.020139426800929512,0.013168086754453912,0.022463206816421378,0.022463206816421378,0.022463206816421378
S12_D14 hbo,0.022307692307692306,0.022307692307692306,0.022307692307692306,0.023076923076923078,0.021538461538461538,0.023076923076923078,0.02076923076923077,0.021538461538461538,0.02076923076923077,0.023076923076923078,0.018461538461538463,0.019230769230769232,0.021538461538461538,0.022307692307692306,0.018461538461538463,0.022307692307692306,0.019230769230769232,0.02,0.0,0.02,0.019230769230769232,0.02,0.02,0.019230769230769232,0.02,0.0,0.023076923076923078,0.023076923076923078,0.021538461538461538,0.023076923076923078,0.023076923076923078,0.02076923076923077,0.022307692307692306,0.0,0.022307692307692306,0.021538461538461538,0.022307692307692306,0.021538461538461538,0.023076923076923078,0.02,0.0,0.022307692307692306,0.0007692307692307692,0.021538461538461538,0.021538461538461538,0.022307692307692306,0.022307692307692306,0.02,0.013076923076923076,0.022307692307692306,0.022307692307692306,0.023076923076923078
S13_D6 hbo,0.021775544388609715,0.021775544388609715,0.021775544388609715,0.021775544388609715,0.021775544388609715,0.021775544388609715,0.021775544388609715,0.021775544388609715,0.021775544388609715,0.021775544388609715,0.019262981574539362,0.020100502512562814,0.021775544388609715,0.021775544388609715,0.019262981574539362,0.021775544388609715,0.020100502512562814,0.020938023450586266,0.0,0.020938023450586266,0.020100502512562814,0.020938023450586266,0.020938023450586266,0.020100502512562814,0.020938023450586266,0.0,0.021775544388609715,0.021775544388609715,0.021775544388609715,0.021775544388609715,0.021775544388609715,0.021775544388609715,0.021775544388609715,0.0,0.021775544388609715,0.021775544388609715,0.021775544388609715,0.021775544388609715,0.021775544388609715,0.020938023450586266,0.0,0.021775544388609715,0.0008375209380234506,0.021775544388609715,0.021775544388609715,0.021775544388609715,0.021775544388609715,0.021775544388609715,0.01423785594639866,0.021775544388609715,0.021775544388609715,0.021775544388609715
S13_D11 hbo,0.0,0.0,0.0,0.0,0.0,0.0,0.0,0.0,0.0,0.0,0.0,0.0,0.0,0.0,0.0,0.0,0.0,0.0,0.0,0.0,0.0,0.0,0.0,0.0,0.0,0.0,0.0,0.0,0.0,0.0,0.0,0.0,0.0,0.0,0.0,0.0,0.0,0.0,0.0,0.0,0.0,0.0,0.0,0.0,0.0,0.0,0.0,0.0,0.0,0.0,0.0,0.0
S13_D13 hbo,0.022310756972111555,0.022310756972111555,0.022310756972111555,0.023107569721115537,0.02151394422310757,0.023107569721115537,0.020717131474103586,0.02151394422310757,0.020717131474103586,0.023107569721115537,0.018326693227091632,0.019123505976095617,0.02151394422310757,0.022310756972111555,0.018326693227091632,0.022310756972111555,0.019123505976095617,0.0199203187250996,0.0,0.0199203187250996,0.019123505976095617,0.0199203187250996,0.0199203187250996,0.019123505976095617,0.0199203187250996,0.0,0.023107569721115537,0.023107569721115537,0.02151394422310757,0.023107569721115537,0.023107569721115537,0.020717131474103586,0.022310756972111555,0.0,0.022310756972111555,0.02151394422310757,0.022310756972111555,0.02151394422310757,0.023107569721115537,0.0199203187250996,0.0,0.022310756972111555,0.0007968127490039841,0.02151394422310757,0.02151394422310757,0.022310756972111555,0.022310756972111555,0.020717131474103586,0.013545816733067729,0.022310756972111555,0.022310756972111555,0.023107569721115537
S13_D15 hbo,0.02127659574468085,0.02127659574468085,0.02127659574468085,0.02127659574468085,0.02127659574468085,0.02127659574468085,0.02127659574468085,0.02127659574468085,0.02127659574468085,0.02127659574468085,0.02127659574468085,0.02127659574468085,0.02127659574468085,0.02127659574468085,0.02127659574468085,0.02127659574468085,0.02127659574468085,0.02127659574468085,0.0,0.02127659574468085,0.02127659574468085,0.02127659574468085,0.02127659574468085,0.02127659574468085,0.02127659574468085,0.0,0.02127659574468085,0.02127659574468085,0.02127659574468085,0.02127659574468085,0.02127659574468085,0.02127659574468085,0.02127659574468085,0.0,0.02127659574468085,0.02127659574468085,0.02127659574468085,0.02127659574468085,0.02127659574468085,0.02127659574468085,0.0,0.02127659574468085,0.0,0.02127659574468085,0.02127659574468085,0.02127659574468085,0.02127659574468085,0.02127659574468085,0.02127659574468085,0.02127659574468085,0.02127659574468085,0.02127659574468085
S14_D12 hbo,0.022463206816421378,0.022463206816421378,0.022463206816421378,0.022463206816421378,0.021688613477924088,0.022463206816421378,0.020914020139426802,0.021688613477924088,0.020914020139426802,0.022463206816421378,0.018590240123934933,0.019364833462432222,0.021688613477924088,0.022463206816421378,0.018590240123934933,0.022463206816421378,0.019364833462432222,0.020139426800929512,0.0,0.020139426800929512,0.019364833462432222,0.020139426800929512,0.020139426800929512,0.019364833462432222,0.020139426800929512,0.0,0.022463206816421378,0.022463206816421378,0.021688613477924088,0.022463206816421378,0.022463206816421378,0.020914020139426802,0.022463206816421378,0.0,0.022463206816421378,0.021688613477924088,0.022463206816421378,0.021688613477924088,0.022463206816421378,0.020139426800929512,0.0,0.022463206816421378,0.000774593338497289,0.021688613477924088,0.021688613477924088,0.022463206816421378,0.022463206816421378,0.020139426800929512,0.013168086754453912,0.022463206816421378,0.022463206816421378,0.022463206816421378
S14_D13 hbo,0.022463206816421378,0.022463206816421378,0.022463206816421378,0.022463206816421378,0.021688613477924088,0.022463206816421378,0.020914020139426802,0.021688613477924088,0.020914020139426802,0.022463206816421378,0.018590240123934933,0.019364833462432222,0.021688613477924088,0.022463206816421378,0.018590240123934933,0.022463206816421378,0.019364833462432222,0.020139426800929512,0.0,0.020139426800929512,0.019364833462432222,0.020139426800929512,0.020139426800929512,0.019364833462432222,0.020139426800929512,0.0,0.022463206816421378,0.022463206816421378,0.021688613477924088,0.022463206816421378,0.022463206816421378,0.020914020139426802,0.022463206816421378,0.0,0.022463206816421378,0.021688613477924088,0.022463206816421378,0.021688613477924088,0.022463206816421378,0.020139426800929512,0.0,0.022463206816421378,0.000774593338497289,0.021688613477924088,0.021688613477924088,0.022463206816421378,0.022463206816421378,0.020139426800929512,0.013168086754453912,0.022463206816421378,0.022463206816421378,0.022463206816421378
S14_D14 hbo,0.022307692307692306,0.022307692307692306,0.022307692307692306,0.023076923076923078,0.021538461538461538,0.023076923076923078,0.02076923076923077,0.021538461538461538,0.02076923076923077,0.023076923076923078,0.018461538461538463,0.019230769230769232,0.021538461538461538,0.022307692307692306,0.018461538461538463,0.022307692307692306,0.019230769230769232,0.02,0.0,0.02,0.019230769230769232,0.02,0.02,0.019230769230769232,0.02,0.0,0.023076923076923078,0.023076923076923078,0.021538461538461538,0.023076923076923078,0.023076923076923078,0.02076923076923077,0.022307692307692306,0.0,0.022307692307692306,0.021538461538461538,0.022307692307692306,0.021538461538461538,0.023076923076923078,0.02,0.0,0.022307692307692306,0.0007692307692307692,0.021538461538461538,0.021538461538461538,0.022307692307692306,0.022307692307692306,0.02,0.013076923076923076,0.022307692307692306,0.022307692307692306,0.023076923076923078
S14_D16 hbo,0.022307692307692306,0.022307692307692306,0.022307692307692306,0.023076923076923078,0.021538461538461538,0.023076923076923078,0.02076923076923077,0.021538461538461538,0.02076923076923077,0.023076923076923078,0.018461538461538463,0.019230769230769232,0.021538461538461538,0.022307692307692306,0.018461538461538463,0.022307692307692306,0.019230769230769232,0.02,0.0,0.02,0.019230769230769232,0.02,0.02,0.019230769230769232,0.02,0.0,0.023076923076923078,0.023076923076923078,0.021538461538461538,0.023076923076923078,0.023076923076923078,0.02076923076923077,0.022307692307692306,0.0,0.022307692307692306,0.021538461538461538,0.022307692307692306,0.021538461538461538,0.023076923076923078,0.02,0.0,0.022307692307692306,0.0007692307692307692,0.021538461538461538,0.021538461538461538,0.022307692307692306,0.022307692307692306,0.02,0.013076923076923076,0.022307692307692306,0.022307692307692306,0.023076923076923078
S15_D13 hbo,0.022071307300509338,0.022071307300509338,0.022071307300509338,0.022071307300509338,0.022071307300509338,0.022071307300509338,0.021222410865874362,0.022071307300509338,0.021222410865874362,0.022071307300509338,0.01867572156196944,0.019524617996604415,0.022071307300509338,0.022071307300509338,0.01867572156196944,0.022071307300509338,0.019524617996604415,0.02037351443123939,0.0,0.02037351443123939,0.019524617996604415,0.02037351443123939,0.02037351443123939,0.019524617996604415,0.02037351443123939,0.0,0.022071307300509338,0.022071307300509338,0.022071307300509338,0.022071307300509338,0.022071307300509338,0.021222410865874362,0.022071307300509338,0.0,0.022071307300509338,0.022071307300509338,0.022071307300509338,0.022071307300509338,0.022071307300509338,0.02037351443123939,0.0,0.022071307300509338,0.0008488964346349745,0.022071307300509338,0.022071307300509338,0.022071307300509338,0.022071307300509338,0.021222410865874362,0.014431239388794566,0.022071307300509338,0.022071307300509338,0.022071307300509338
S15_D15 hbo,0.02127659574468085,0.02127659574468085,0.02127659574468085,0.02127659574468085,0.02127659574468085,0.02127659574468085,0.02127659574468085,0.02127659574468085,0.02127659574468085,0.02127659574468085,0.02127659574468085,0.02127659574468085,0.02127659574468085,0.02127659574468085,0.02127659574468085,0.02127659574468085,0.02127659574468085,0.02127659574468085,0.0,0.02127659574468085,0.02127659574468085,0.02127659574468085,0.02127659574468085,0.02127659574468085,0.02127659574468085,0.0,0.02127659574468085,0.02127659574468085,0.02127659574468085,0.02127659574468085,0.02127659574468085,0.02127659574468085,0.02127659574468085,0.0,0.02127659574468085,0.02127659574468085,0.02127659574468085,0.02127659574468085,0.02127659574468085,0.02127659574468085,0.0,0.02127659574468085,0.0012515644555694619,0.02127659574468085,0.02127659574468085,0.02127659574468085,0.02127659574468085,0.02127659574468085,0.02002503128911139,0.02127659574468085,0.02127659574468085,0.02127659574468085
S15_D16 hbo,0.022310756972111555,0.022310756972111555,0.022310756972111555,0.023107569721115537,0.02151394422310757,0.023107569721115537,0.020717131474103586,0.02151394422310757,0.020717131474103586,0.023107569721115537,0.018326693227091632,0.019123505976095617,0.02151394422310757,0.022310756972111555,0.018326693227091632,0.022310756972111555,0.019123505976095617,0.0199203187250996,0.0,0.0199203187250996,0.019123505976095617,0.0199203187250996,0.0199203187250996,0.019123505976095617,0.0199203187250996,0.0,0.023107569721115537,0.023107569721115537,0.02151394422310757,0.023107569721115537,0.023107569721115537,0.020717131474103586,0.022310756972111555,0.0,0.022310756972111555,0.02151394422310757,0.022310756972111555,0.02151394422310757,0.023107569721115537,0.0199203187250996,0.0,0.022310756972111555,0.0007968127490039841,0.02151394422310757,0.02151394422310757,0.022310756972111555,0.022310756972111555,0.020717131474103586,0.013545816733067729,0.022310756972111555,0.022310756972111555,0.023107569721115537
S16_D14 hbo,0.022307692307692306,0.022307692307692306,0.022307692307692306,0.023076923076923078,0.021538461538461538,0.023076923076923078,0.02076923076923077,0.021538461538461538,0.02076923076923077,0.023076923076923078,0.018461538461538463,0.019230769230769232,0.021538461538461538,0.022307692307692306,0.018461538461538463,0.022307692307692306,0.019230769230769232,0.02,0.0,0.02,0.019230769230769232,0.02,0.02,0.019230769230769232,0.02,0.0,0.023076923076923078,0.023076923076923078,0.021538461538461538,0.023076923076923078,0.023076923076923078,0.02076923076923077,0.022307692307692306,0.0,0.022307692307692306,0.021538461538461538,0.022307692307692306,0.021538461538461538,0.023076923076923078,0.02,0.0,0.022307692307692306,0.0007692307692307692,0.021538461538461538,0.021538461538461538,0.022307692307692306,0.022307692307692306,0.02,0.013076923076923076,0.022307692307692306,0.022307692307692306,0.023076923076923078
S16_D16 hbo,0.022307692307692306,0.022307692307692306,0.022307692307692306,0.023076923076923078,0.021538461538461538,0.023076923076923078,0.02076923076923077,0.021538461538461538,0.02076923076923077,0.023076923076923078,0.018461538461538463,0.019230769230769232,0.021538461538461538,0.022307692307692306,0.018461538461538463,0.022307692307692306,0.019230769230769232,0.02,0.0,0.02,0.019230769230769232,0.02,0.02,0.019230769230769232,0.02,0.0,0.023076923076923078,0.023076923076923078,0.021538461538461538,0.023076923076923078,0.023076923076923078,0.02076923076923077,0.022307692307692306,0.0,0.022307692307692306,0.021538461538461538,0.022307692307692306,0.021538461538461538,0.023076923076923078,0.02,0.0,0.022307692307692306,0.0007692307692307692,0.021538461538461538,0.021538461538461538,0.022307692307692306,0.022307692307692306,0.02,0.013076923076923076,0.022307692307692306,0.022307692307692306,0.023076923076923078
