,S1_D1 hbo,S1_D3 hbo,S2_D1 hbo,S2_D2 hbo,S2_D4 hbo,S3_D1 hbo,S3_D3 hbo,S3_D4 hbo,S3_D5 hbo,S4_D2 hbo,S4_D4 hbo,S4_D6 hbo,S4_D11 hbo,S5_D3 hbo,S5_D5 hbo,S5_D7 hbo,S6_D4 hbo,S6_D5 hbo,S6_D6 hbo,S6_D8 hbo,S7_D5 hbo,S7_D7 hbo,S7_D8 hbo,S8_D6 hbo,S8_D8 hbo,S8_D15 hbo,S9_D2 hbo,S9_D9 hbo,S9_D11 hbo,S10_D9 hbo,S10_D10 hbo,S10_D12 hbo,S11_D9 hbo,S11_D11 hbo,S11_D12 hbo,S11_D13 hbo,S12_D10 hbo,S12_D12 hbo,S12_D14 hbo,S13_D6 hbo,S13_D11 hbo,S13_D13 hbo,S13_D15 hbo,S14_D12 hbo,S14_D13 hbo,S14_D14 hbo,S14_D16 hbo,S15_D13 hbo,S15_D15 hbo,S15_D16 hbo,S16_D14 hbo,S16_D16 hbo
S1_D1 hbo,0.02018724400234055,0.02018724400234055,0.01960210649502633,0.02018724400234055,0.018431831480397894,0.02018724400234055,0.016676418958455237,0.017261556465769455,0.017261556465769455,0.017554125219426564,0.019016968987712112,0.017261556465769455,0.02018724400234055,0.017554125219426564,0.01492100643651258,0.012580456407255705,0.01960210649502633,0.01930953774136922,0.02018724400234055,0.019016968987712112,0.02018724400234055,0.02018724400234055,0.02018724400234055,0.02018724400234055,0.02018724400234055,0.02018724400234055,0.02018724400234055,0.02018724400234055,0.02018724400234055,0.017846693973083673,0.019016968987712112,0.01960210649502633,0.01930953774136922,0.01989467524868344,0.02018724400234055,0.019016968987712112,0.02018724400234055,0.02018724400234055,0.016968987712112346,0.02018724400234055,0.02018724400234055,0.018724400234055003,0.02018724400234055,0.01930953774136922,0.01930953774136922,0.02018724400234055,0.01989467524868344,0.02018724400234055,0.02018724400234055,0.02018724400234055,0.02018724400234055,0.02018724400234055
S1_D3 hbo,0.02018724400234055,0.02018724400234055,0.01960210649502633,0.02018724400234055,0.018431831480397894,0.02018724400234055,0.016676418958455237,0.017261556465769455,0.017261556465769455,0.017554125219426564,0.019016968987712112,0.017261556465769455,0.02018724400234055,0.017554125219426564,0.01492100643651258,0.012580456407255705,0.01960210649502633,0.01930953774136922,0.02018724400234055,0.019016968987712112,0.02018724400234055,0.02018724400234055,0.02018724400234055,0.02018724400234055,0.02018724400234055,0.02018724400234055,0.02018724400234055,0.02018724400234055,0.02018724400234055,0.017846693973083673,0.019016968987712112,0.01960210649502633,0.01930953774136922,0.01989467524868344,0.02018724400234055,0.019016968987712112,0.02018724400234055,0.02018724400234055,0.016968987712112346,0.02018724400234055,0.02018724400234055,0.018724400234055003,0.02018724400234055,0.01930953774136922,0.01930953774136922,0.02018724400234055,0.01989467524868344,0.02018724400234055,0.02018724400234055,0.02018724400234055,0.02018724400234055,0.02018724400234055
S2_D1 hbo,0.01981981981981982,0.01981981981981982,0.01981981981981982,0.01981981981981982,0.01891891891891892,0.01981981981981982,0.017117117117117116,0.017717717717717716,0.017717717717717716,0.018018018018018018,0.01951951951951952,0.017717717717717716,0.01981981981981982,0.018018018018018018,0.015315315315315315,0.012912912912912912,0.01981981981981982,0.01981981981981982,0.01981981981981982,0.01951951951951952,0.01981981981981982,0.01981981981981982,0.01981981981981982,0.01981981981981982,0.01981981981981982,0.01981981981981982,0.01981981981981982,0.01981981981981982,0.01981981981981982,0.01831831831831832,0.01951951951951952,0.01981981981981982,0.01981981981981982,0.01981981981981982,0.01981981981981982,0.01951951951951952,0.01981981981981982,0.01981981981981982,0.017417417417417418,0.01981981981981982,0.01981981981981982,0.01921921921921922,0.01981981981981982,0.01981981981981982,0.01981981981981982,0.01981981981981982,0.01981981981981982,0.01981981981981982,0.01981981981981982,0.01981981981981982,0.01981981981981982,0.01981981981981982
S2_D2 hbo,0.02018724400234055,0.02018724400234055,0.01960210649502633,0.02018724400234055,0.018431831480397894,0.02018724400234055,0.016676418958455237,0.017261556465769455,0.017261556465769455,0.017554125219426564,0.019016968987712112,0.017261556465769455,0.02018724400234055,0.017554125219426564,0.01492100643651258,0.012580456407255705,0.01960210649502633,0.01930953774136922,0.02018724400234055,0.019016968987712112,0.02018724400234055,0.02018724400234055,0.02018724400234055,0.02018724400234055,0.02018724400234055,0.02018724400234055,0.02018724400234055,0.02018724400234055,0.02018724400234055,0.017846693973083673,0.019016968987712112,0.01960210649502633,0.01930953774136922,0.01989467524868344,0.02018724400234055,0.019016968987712112,0.02018724400234055,0.02018724400234055,0.016968987712112346,0.02018724400234055,0.02018724400234055,0.018724400234055003,0.02018724400234055,0.01930953774136922,0.01930953774136922,0.02018724400234055,0.01989467524868344,0.02018724400234055,0.02018724400234055,0.02018724400234055,0.02018724400234055,0.02018724400234055
S2_D4 hbo,0.019552191737622203,0.019552191737622203,0.019552191737622203,0.019552191737622203,0.019552191737622203,0.019552191737622203,0.017975402081362345,0.01860611794386629,0.01860611794386629,0.01892147587511826,0.019552191737622203,0.01860611794386629,0.019552191737622203,0.01892147587511826,0.01608325449385052,0.013560391043834753,0.019552191737622203,0.019552191737622203,0.019552191737622203,0.019552191737622203,0.019552191737622203,0.019552191737622203,0.019552191737622203,0.019552191737622203,0.019552191737622203,0.019552191737622203,0.019552191737622203,0.019552191737622203,0.019552191737622203,0.01923683380637023,0.019552191737622203,0.019552191737622203,0.019552191737622203,0.019552191737622203,0.019552191737622203,0.019552191737622203,0.019552191737622203,0.019552191737622203,0.01829076001261432,0.019552191737622203,0.019552191737622203,0.019552191737622203,0.019552191737622203,0.019552191737622203,0.019552191737622203,0.019552191737622203,0.019552191737622203,0.019552191737622203,0.019552191737622203,0.019552191737622203,0.019552191737622203,0.019552191737622203
S3_D1 hbo,0.020053081686818047,0.020053081686818047,0.01975818342671778,0.020053081686818047,0.01857859038631672,0.020053081686818047,0.016809200825715128,0.01739899734591566,0.01739899734591566,0.017693895606015926,0.019168386906517253,0.01739899734591566,0.020053081686818047,0.017693895606015926,0.015039811265113535,0.012680625184311413,0.01975818342671778,0.019463285166617515,0.020053081686818047,0.019168386906517253,0.020053081686818047,0.020053081686818047,0.020053081686818047,0.020053081686818047,0.020053081686818047,0.020053081686818047,0.020053081686818047,0.020053081686818047,0.020053081686818047,0.01798879386611619,0.019168386906517253,0.01975818342671778,0.019463285166617515,0.020053081686818047,0.020053081686818047,0.019168386906517253,0.020053081686818047,0.020053081686818047,0.017104099085815394,0.020053081686818047,0.020053081686818047,0.018873488646416987,0.020053081686818047,0.019463285166617515,0.019463285166617515,0.020053081686818047,0.020053081686818047,0.020053081686818047,0.020053081686818047,0.020053081686818047,0.020053081686818047,0.020053081686818047
S3_D3 hbo,0.019350380096751902,0.019350380096751902,0.019350380096751902,0.019350380096751902,0.019350380096751902,0.019350380096751902,0.019350380096751902,0.019350380096751902,0.019350380096751902,0.019350380096751902,0.019350380096751902,0.019350380096751902,0.019350380096751902,0.019350380096751902,0.017622667588113337,0.014858327574291638,0.019350380096751902,0.019350380096751902,0.019350380096751902,0.019350380096751902,0.019350380096751902,0.019350380096751902,0.019350380096751902,0.019350380096751902,0.019350380096751902,0.019350380096751902,0.019350380096751902,0.019350380096751902,0.019350380096751902,0.019350380096751902,0.019350380096751902,0.019350380096751902,0.019350380096751902,0.019350380096751902,0.019350380096751902,0.019350380096751902,0.019350380096751902,0.019350380096751902,0.019350380096751902,0.019350380096751902,0.019350380096751902,0.019350380096751902,0.019350380096751902,0.019350380096751902,0.019350380096751902,0.019350380096751902,0.019350380096751902,0.019350380096751902,0.019350380096751902,0.019350380096751902,0.019350380096751902,0.019350380096751902
S3_D4 hbo,0.01937854994988306,0.01937854994988306,0.01937854994988306,0.01937854994988306,0.01937854994988306,0.01937854994988306,0.019044437019712663,0.01937854994988306,0.01937854994988306,0.01937854994988306,0.01937854994988306,0.01937854994988306,0.01937854994988306,0.01937854994988306,0.017039759438690277,0.014366855997327097,0.01937854994988306,0.01937854994988306,0.01937854994988306,0.01937854994988306,0.01937854994988306,0.01937854994988306,0.01937854994988306,0.01937854994988306,0.01937854994988306,0.01937854994988306,0.01937854994988306,0.01937854994988306,0.01937854994988306,0.01937854994988306,0.01937854994988306,0.01937854994988306,0.01937854994988306,0.01937854994988306,0.01937854994988306,0.01937854994988306,0.01937854994988306,0.01937854994988306,0.01937854994988306,0.01937854994988306,0.01937854994988306,0.01937854994988306,0.01937854994988306,0.01937854994988306,0.01937854994988306,0.01937854994988306,0.01937854994988306,0.01937854994988306,0.01937854994988306,0.01937854994988306,0.01937854994988306,0.01937854994988306
S3_D5 hbo,0.01937854994988306,0.01937854994988306,0.01937854994988306,0.01937854994988306,0.01937854994988306,0.01937854994988306,0.019044437019712663,0.01937854994988306,0.01937854994988306,0.01937854994988306,0.01937854994988306,0.01937854994988306,0.01937854994988306,0.01937854994988306,0.017039759438690277,0.014366855997327097,0.01937854994988306,0.01937854994988306,0.01937854994988306,0.01937854994988306,0.01937854994988306,0.01937854994988306,0.01937854994988306,0.01937854994988306,0.01937854994988306,0.01937854994988306,0.01937854994988306,0.01937854994988306,0.01937854994988306,0.01937854994988306,0.01937854994988306,0.01937854994988306,0.01937854994988306,0.01937854994988306,0.01937854994988306,0.01937854994988306,0.01937854994988306,0.01937854994988306,0.01937854994988306,0.01937854994988306,0.01937854994988306,0.01937854994988306,0.01937854994988306,0.01937854994988306,0.01937854994988306,0.01937854994988306,0.01937854994988306,0.01937854994988306,0.01937854994988306,0.01937854994988306,0.01937854994988306,0.01937854994988306
S4_D2 hbo,0.01940151266030911,0.01940151266030911,0.01940151266030911,0.01940151266030911,0.01940151266030911,0.01940151266030911,0.018743834265044394,0.01940151266030911,0.01940151266030911,0.01940151266030911,0.01940151266030911,0.01940151266030911,0.01940151266030911,0.01940151266030911,0.016770799079250248,0.014140085498191384,0.01940151266030911,0.01940151266030911,0.01940151266030911,0.01940151266030911,0.01940151266030911,0.01940151266030911,0.01940151266030911,0.01940151266030911,0.01940151266030911,0.01940151266030911,0.01940151266030911,0.01940151266030911,0.01940151266030911,0.01940151266030911,0.01940151266030911,0.01940151266030911,0.01940151266030911,0.01940151266030911,0.01940151266030911,0.01940151266030911,0.01940151266030911,0.01940151266030911,0.01907267346267675,0.01940151266030911,0.01940151266030911,0.01940151266030911,0.01940151266030911,0.01940151266030911,0.01940151266030911,0.01940151266030911,0.01940151266030911,0.01940151266030911,0.01940151266030911,0.01940151266030911,0.01940151266030911,0.01940151266030911
S4_D4 hbo,0.019668100799016593,0.019668100799016593,0.019668100799016593,0.019668100799016593,0.01936078672403196,0.019668100799016593,0.017516902274124155,0.018131530424093423,0.018131530424093423,0.01843884449907806,0.019668100799016593,0.018131530424093423,0.019668100799016593,0.01843884449907806,0.01567301782421635,0.013214505224339274,0.019668100799016593,0.019668100799016593,0.019668100799016593,0.019668100799016593,0.019668100799016593,0.019668100799016593,0.019668100799016593,0.019668100799016593,0.019668100799016593,0.019668100799016593,0.019668100799016593,0.019668100799016593,0.019668100799016593,0.018746158574062692,0.019668100799016593,0.019668100799016593,0.019668100799016593,0.019668100799016593,0.019668100799016593,0.019668100799016593,0.019668100799016593,0.019668100799016593,0.01782421634910879,0.019668100799016593,0.019668100799016593,0.019668100799016593,0.019668100799016593,0.019668100799016593,0.019668100799016593,0.019668100799016593,0.019668100799016593,0.019668100799016593,0.019668100799016593,0.019668100799016593,0.019668100799016593,0.019668100799016593
S4_D6 hbo,0.01937854994988306,0.01937854994988306,0.01937854994988306,0.01937854994988306,0.01937854994988306,0.01937854994988306,0.019044437019712663,0.01937854994988306,0.01937854994988306,0.01937854994988306,0.01937854994988306,0.01937854994988306,0.01937854994988306,0.01937854994988306,0.017039759438690277,0.014366855997327097,0.01937854994988306,0.01937854994988306,0.01937854994988306,0.01937854994988306,0.01937854994988306,0.01937854994988306,0.01937854994988306,0.01937854994988306,0.01937854994988306,0.01937854994988306,0.01937854994988306,0.01937854994988306,0.01937854994988306,0.01937854994988306,0.01937854994988306,0.01937854994988306,0.01937854994988306,0.01937854994988306,0.01937854994988306,0.01937854994988306,0.01937854994988306,0.01937854994988306,0.01937854994988306,0.01937854994988306,0.01937854994988306,0.01937854994988306,0.01937854994988306,0.01937854994988306,0.01937854994988306,0.01937854994988306,0.01937854994988306,0.01937854994988306,0.01937854994988306,0.01937854994988306,0.01937854994988306,0.01937854994988306
S4_D11 hbo,0.02018724400234055,0.02018724400234055,0.01960210649502633,0.02018724400234055,0.018431831480397894,0.02018724400234055,0.016676418958455237,0.017261556465769455,0.017261556465769455,0.017554125219426564,0.019016968987712112,0.017261556465769455,0.02018724400234055,0.017554125219426564,0.01492100643651258,0.012580456407255705,0.01960210649502633,0.01930953774136922,0.02018724400234055,0.019016968987712112,0.02018724400234055,0.02018724400234055,0.02018724400234055,0.02018724400234055,0.02018724400234055,0.02018724400234055,0.02018724400234055,0.02018724400234055,0.02018724400234055,0.017846693973083673,0.019016968987712112,0.01960210649502633,0.01930953774136922,0.01989467524868344,0.02018724400234055,0.019016968987712112,0.02018724400234055,0.02018724400234055,0.016968987712112346,0.02018724400234055,0.02018724400234055,0.018724400234055003,0.02018724400234055,0.01930953774136922,0.01930953774136922,0.02018724400234055,0.01989467524868344,0.02018724400234055,0.02018724400234055,0.02018724400234055,0.02018724400234055,0.02018724400234055
S5_D3 hbo,0.01940151266030911,0.01940151266030911,0.01940151266030911,0.01940151266030911,0.01940151266030911,0.01940151266030911,0.018743834265044394,0.01940151266030911,0.01940151266030911,0.01940151266030911,0.01940151266030911,0.01940151266030911,0.01940151266030911,0.01940151266030911,0.016770799079250248,0.014140085498191384,0.01940151266030911,0.01940151266030911,0.01940151266030911,0.01940151266030911,0.01940151266030911,0.01940151266030911,0.01940151266030911,0.01940151266030911,0.01940151266030911,0.01940151266030911,0.01940151266030911,0.01940151266030911,0.01940151266030911,0.01940151266030911,0.01940151266030911,0.01940151266030911,0.01940151266030911,0.01940151266030911,0.01940151266030911,0.01940151266030911,0.01940151266030911,0.01940151266030911,0.01907267346267675,0.01940151266030911,0.01940151266030911,0.01940151266030911,0.01940151266030911,0.01940151266030911,0.01940151266030911,0.01940151266030911,0.01940151266030911,0.01940151266030911,0.01940151266030911,0.01940151266030911,0.01940151266030911,0.01940151266030911
S5_D5 hbo,0.01928268414963363,0.01928268414963363,0.01928268414963363,0.01928268414963363,0.01928268414963363,0.01928268414963363,0.01928268414963363,0.01928268414963363,0.01928268414963363,0.01928268414963363,0.01928268414963363,0.01928268414963363,0.01928268414963363,0.01928268414963363,0.01928268414963363,0.016583108368684922,0.01928268414963363,0.01928268414963363,0.01928268414963363,0.01928268414963363,0.01928268414963363,0.01928268414963363,0.01928268414963363,0.01928268414963363,0.01928268414963363,0.01928268414963363,0.01928268414963363,0.01928268414963363,0.01928268414963363,0.01928268414963363,0.01928268414963363,0.01928268414963363,0.01928268414963363,0.01928268414963363,0.01928268414963363,0.01928268414963363,0.01928268414963363,0.01928268414963363,0.01928268414963363,0.01928268414963363,0.01928268414963363,0.01928268414963363,0.01928268414963363,0.01928268414963363,0.01928268414963363,0.01928268414963363,0.01928268414963363,0.01928268414963363,0.01928268414963363,0.01928268414963363,0.01928268414963363,0.01928268414963363
S5_D7 hbo,0.019230769230769232,0.019230769230769232,0.019230769230769232,0.019230769230769232,0.019230769230769232,0.019230769230769232,0.019230769230769232,0.019230769230769232,0.019230769230769232,0.019230769230769232,0.019230769230769232,0.019230769230769232,0.019230769230769232,0.019230769230769232,0.019230769230769232,0.019230769230769232,0.019230769230769232,0.019230769230769232,0.019230769230769232,0.019230769230769232,0.019230769230769232,0.019230769230769232,0.019230769230769232,0.019230769230769232,0.019230769230769232,0.019230769230769232,0.019230769230769232,0.019230769230769232,0.019230769230769232,0.019230769230769232,0.019230769230769232,0.019230769230769232,0.019230769230769232,0.019230769230769232,0.019230769230769232,0.019230769230769232,0.019230769230769232,0.019230769230769232,0.019230769230769232,0.019230769230769232,0.019230769230769232,0.019230769230769232,0.019230769230769232,0.019230769230769232,0.019230769230769232,0.019230769230769232,0.019230769230769232,0.019230769230769232,0.019230769230769232,0.019230769230769232,0.019230769230769232,0.019230769230769232
S6_D4 hbo,0.01981981981981982,0.01981981981981982,0.01981981981981982,0.01981981981981982,0.01891891891891892,0.01981981981981982,0.017117117117117116,0.017717717717717716,0.017717717717717716,0.018018018018018018,0.01951951951951952,0.017717717717717716,0.01981981981981982,0.018018018018018018,0.015315315315315315,0.012912912912912912,0.01981981981981982,0.01981981981981982,0.01981981981981982,0.01951951951951952,0.01981981981981982,0.01981981981981982,0.01981981981981982,0.01981981981981982,0.01981981981981982,0.01981981981981982,0.01981981981981982,0.01981981981981982,0.01981981981981982,0.01831831831831832,0.01951951951951952,0.01981981981981982,0.01981981981981982,0.01981981981981982,0.01981981981981982,0.01951951951951952,0.01981981981981982,0.01981981981981982,0.017417417417417418,0.01981981981981982,0.01981981981981982,0.01921921921921922,0.01981981981981982,0.01981981981981982,0.01981981981981982,0.01981981981981982,0.01981981981981982,0.01981981981981982,0.01981981981981982,0.01981981981981982,0.01981981981981982,0.01981981981981982
S6_D5 hbo,0.01973284760170006,0.01973284760170006,0.01973284760170006,0.01973284760170006,0.01912568306010929,0.01973284760170006,0.017304189435336976,0.01791135397692775,0.01791135397692775,0.018214936247723135,0.01973284760170006,0.01791135397692775,0.01973284760170006,0.018214936247723135,0.015482695810564663,0.013054037644201578,0.01973284760170006,0.01973284760170006,0.01973284760170006,0.01973284760170006,0.01973284760170006,0.01973284760170006,0.01973284760170006,0.01973284760170006,0.01973284760170006,0.01973284760170006,0.01973284760170006,0.01973284760170006,0.01973284760170006,0.018518518518518517,0.01973284760170006,0.01973284760170006,0.01973284760170006,0.01973284760170006,0.01973284760170006,0.01973284760170006,0.01973284760170006,0.01973284760170006,0.017607771706132362,0.01973284760170006,0.01973284760170006,0.019429265330904676,0.01973284760170006,0.01973284760170006,0.01973284760170006,0.01973284760170006,0.01973284760170006,0.01973284760170006,0.01973284760170006,0.01973284760170006,0.01973284760170006,0.01973284760170006
S6_D6 hbo,0.02018724400234055,0.02018724400234055,0.01960210649502633,0.02018724400234055,0.018431831480397894,0.02018724400234055,0.016676418958455237,0.017261556465769455,0.017261556465769455,0.017554125219426564,0.019016968987712112,0.017261556465769455,0.02018724400234055,0.017554125219426564,0.01492100643651258,0.012580456407255705,0.01960210649502633,0.01930953774136922,0.02018724400234055,0.019016968987712112,0.02018724400234055,0.02018724400234055,0.02018724400234055,0.02018724400234055,0.02018724400234055,0.02018724400234055,0.02018724400234055,0.02018724400234055,0.02018724400234055,0.017846693973083673,0.019016968987712112,0.01960210649502633,0.01930953774136922,0.01989467524868344,0.02018724400234055,0.019016968987712112,0.02018724400234055,0.02018724400234055,0.016968987712112346,0.02018724400234055,0.02018724400234055,0.018724400234055003,0.02018724400234055,0.01930953774136922,0.01930953774136922,0.02018724400234055,0.01989467524868344,0.02018724400234055,0.02018724400234055,0.02018724400234055,0.02018724400234055,0.02018724400234055
S6_D8 hbo,0.019668100799016593,0.019668100799016593,0.019668100799016593,0.019668100799016593,0.01936078672403196,0.019668100799016593,0.017516902274124155,0.018131530424093423,0.018131530424093423,0.01843884449907806,0.019668100799016593,0.018131530424093423,0.019668100799016593,0.01843884449907806,0.01567301782421635,0.013214505224339274,0.019668100799016593,0.019668100799016593,0.019668100799016593,0.019668100799016593,0.019668100799016593,0.019668100799016593,0.019668100799016593,0.019668100799016593,0.019668100799016593,0.019668100799016593,0.019668100799016593,0.019668100799016593,0.019668100799016593,0.018746158574062692,0.019668100799016593,0.019668100799016593,0.019668100799016593,0.019668100799016593,0.019668100799016593,0.019668100799016593,0.019668100799016593,0.019668100799016593,0.01782421634910879,0.019668100799016593,0.019668100799016593,0.019668100799016593,0.019668100799016593,0.019668100799016593,0.019668100799016593,0.019668100799016593,0.019668100799016593,0.019668100799016593,0.019668100799016593,0.019668100799016593,0.019668100799016593,0.019668100799016593
S7_D5 hbo,0.02018724400234055,0.02018724400234055,0.01960210649502633,0.02018724400234055,0.018431831480397894,0.02018724400234055,0.016676418958455237,0.017261556465769455,0.017261556465769455,0.017554125219426564,0.019016968987712112,0.017261556465769455,0.02018724400234055,0.017554125219426564,0.01492100643651258,0.012580456407255705,0.01960210649502633,0.01930953774136922,0.02018724400234055,0.019016968987712112,0.02018724400234055,0.02018724400234055,0.02018724400234055,0.02018724400234055,0.02018724400234055,0.02018724400234055,0.02018724400234055,0.02018724400234055,0.02018724400234055,0.017846693973083673,0.019016968987712112,0.01960210649502633,0.01930953774136922,0.01989467524868344,0.02018724400234055,0.019016968987712112,0.02018724400234055,0.02018724400234055,0.016968987712112346,0.02018724400234055,0.02018724400234055,0.018724400234055003,0.02018724400234055,0.01930953774136922,0.01930953774136922,0.02018724400234055,0.01989467524868344,0.02018724400234055,0.02018724400234055,0.02018724400234055,0.02018724400234055,0.02018724400234055
S7_D7 hbo,0.020053081686818047,0.020053081686818047,0.01975818342671778,0.020053081686818047,0.01857859038631672,0.020053081686818047,0.016809200825715128,0.01739899734591566,0.01739899734591566,0.017693895606015926,0.019168386906517253,0.01739899734591566,0.020053081686818047,0.017693895606015926,0.015039811265113535,0.012680625184311413,0.01975818342671778,0.019463285166617515,0.020053081686818047,0.019168386906517253,0.020053081686818047,0.020053081686818047,0.020053081686818047,0.020053081686818047,0.020053081686818047,0.020053081686818047,0.020053081686818047,0.020053081686818047,0.020053081686818047,0.01798879386611619,0.019168386906517253,0.01975818342671778,0.019463285166617515,0.020053081686818047,0.020053081686818047,0.019168386906517253,0.020053081686818047,0.020053081686818047,0.017104099085815394,0.020053081686818047,0.020053081686818047,0.018873488646416987,0.020053081686818047,0.019463285166617515,0.019463285166617515,0.020053081686818047,0.020053081686818047,0.020053081686818047,0.020053081686818047,0.020053081686818047,0.020053081686818047,0.020053081686818047
S7_D8 hbo,0.02018724400234055,0.02018724400234055,0.01960210649502633,0.02018724400234055,0.018431831480397894,0.02018724400234055,0.016676418958455237,0.017261556465769455,0.017261556465769455,0.017554125219426564,0.019016968987712112,0.017261556465769455,0.02018724400234055,0.017554125219426564,0.01492100643651258,0.012580456407255705,0.01960210649502633,0.01930953774136922,0.02018724400234055,0.019016968987712112,0.02018724400234055,0.02018724400234055,0.02018724400234055,0.02018724400234055,0.02018724400234055,0.02018724400234055,0.02018724400234055,0.02018724400234055,0.02018724400234055,0.017846693973083673,0.019016968987712112,0.01960210649502633,0.01930953774136922,0.01989467524868344,0.02018724400234055,0.019016968987712112,0.02018724400234055,0.02018724400234055,0.016968987712112346,0.02018724400234055,0.02018724400234055,0.018724400234055003,0.02018724400234055,0.01930953774136922,0.01930953774136922,0.02018724400234055,0.01989467524868344,0.02018724400234055,0.02018724400234055,0.02018724400234055,0.02018724400234055,0.02018724400234055
S8_D6 hbo,0.02018724400234055,0.02018724400234055,0.01960210649502633,0.02018724400234055,0.018431831480397894,0.02018724400234055,0.016676418958455237,0.017261556465769455,0.017261556465769455,0.017554125219426564,0.019016968987712112,0.017261556465769455,0.02018724400234055,0.017554125219426564,0.01492100643651258,0.012580456407255705,0.01960210649502633,0.01930953774136922,0.02018724400234055,0.019016968987712112,0.02018724400234055,0.02018724400234055,0.02018724400234055,0.02018724400234055,0.02018724400234055,0.02018724400234055,0.02018724400234055,0.02018724400234055,0.02018724400234055,0.017846693973083673,0.019016968987712112,0.01960210649502633,0.01930953774136922,0.01989467524868344,0.02018724400234055,0.019016968987712112,0.02018724400234055,0.02018724400234055,0.016968987712112346,0.02018724400234055,0.02018724400234055,0.018724400234055003,0.02018724400234055,0.01930953774136922,0.01930953774136922,0.02018724400234055,0.01989467524868344,0.02018724400234055,0.02018724400234055,0.02018724400234055,0.02018724400234055,0.02018724400234055
S8_D8 hbo,0.02018724400234055,0.02018724400234055,0.01960210649502633,0.02018724400234055,0.018431831480397894,0.02018724400234055,0.016676418958455237,0.017261556465769455,0.017261556465769455,0.017554125219426564,0.019016968987712112,0.017261556465769455,0.02018724400234055,0.017554125219426564,0.01492100643651258,0.012580456407255705,0.01960210649502633,0.01930953774136922,0.02018724400234055,0.019016968987712112,0.02018724400234055,0.02018724400234055,0.02018724400234055,0.02018724400234055,0.02018724400234055,0.02018724400234055,0.02018724400234055,0.02018724400234055,0.02018724400234055,0.017846693973083673,0.019016968987712112,0.01960210649502633,0.01930953774136922,0.01989467524868344,0.02018724400234055,0.019016968987712112,0.02018724400234055,0.02018724400234055,0.016968987712112346,0.02018724400234055,0.02018724400234055,0.018724400234055003,0.02018724400234055,0.01930953774136922,0.01930953774136922,0.02018724400234055,0.01989467524868344,0.02018724400234055,0.02018724400234055,0.02018724400234055,0.02018724400234055,0.02018724400234055
S8_D15 hbo,0.02018724400234055,0.02018724400234055,0.01960210649502633,0.02018724400234055,0.018431831480397894,0.02018724400234055,0.016676418958455237,0.017261556465769455,0.017261556465769455,0.017554125219426564,0.019016968987712112,0.017261556465769455,0.02018724400234055,0.017554125219426564,0.01492100643651258,0.012580456407255705,0.01960210649502633,0.01930953774136922,0.02018724400234055,0.019016968987712112,0.02018724400234055,0.02018724400234055,0.02018724400234055,0.02018724400234055,0.02018724400234055,0.02018724400234055,0.02018724400234055,0.02018724400234055,0.02018724400234055,0.017846693973083673,0.019016968987712112,0.01960210649502633,0.01930953774136922,0.01989467524868344,0.02018724400234055,0.019016968987712112,0.02018724400234055,0.02018724400234055,0.016968987712112346,0.02018724400234055,0.02018724400234055,0.018724400234055003,0.02018724400234055,0.01930953774136922,0.01930953774136922,0.02018724400234055,0.01989467524868344,0.02018724400234055,0.02018724400234055,0.02018724400234055,0.02018724400234055,0.02018724400234055
S9_D2 hbo,0.02018724400234055,0.02018724400234055,0.01960210649502633,0.02018724400234055,0.018431831480397894,0.02018724400234055,0.016676418958455237,0.017261556465769455,0.017261556465769455,0.017554125219426564,0.019016968987712112,0.017261556465769455,0.02018724400234055,0.017554125219426564,0.01492100643651258,0.012580456407255705,0.01960210649502633,0.01930953774136922,0.02018724400234055,0.019016968987712112,0.02018724400234055,0.02018724400234055,0.02018724400234055,0.02018724400234055,0.02018724400234055,0.02018724400234055,0.02018724400234055,0.02018724400234055,0.02018724400234055,0.017846693973083673,0.019016968987712112,0.01960210649502633,0.01930953774136922,0.01989467524868344,0.02018724400234055,0.019016968987712112,0.02018724400234055,0.02018724400234055,0.016968987712112346,0.02018724400234055,0.02018724400234055,0.018724400234055003,0.02018724400234055,0.01930953774136922,0.01930953774136922,0.02018724400234055,0.01989467524868344,0.02018724400234055,0.02018724400234055,0.02018724400234055,0.02018724400234055,0.02018724400234055
S9_D9 hbo,0.02018724400234055,0.02018724400234055,0.01960210649502633,0.02018724400234055,0.018431831480397894,0.02018724400234055,0.016676418958455237,0.017261556465769455,0.017261556465769455,0.017554125219426564,0.019016968987712112,0.017261556465769455,0.02018724400234055,0.017554125219426564,0.01492100643651258,0.012580456407255705,0.01960210649502633,0.01930953774136922,0.02018724400234055,0.019016968987712112,0.02018724400234055,0.02018724400234055,0.02018724400234055,0.02018724400234055,0.02018724400234055,0.02018724400234055,0.02018724400234055,0.02018724400234055,0.02018724400234055,0.017846693973083673,0.019016968987712112,0.01960210649502633,0.01930953774136922,0.01989467524868344,0.02018724400234055,0.019016968987712112,0.02018724400234055,0.02018724400234055,0.016968987712112346,0.02018724400234055,0.02018724400234055,0.018724400234055003,0.02018724400234055,0.01930953774136922,0.01930953774136922,0.02018724400234055,0.01989467524868344,0.02018724400234055,0.02018724400234055,0.02018724400234055,0.02018724400234055,0.02018724400234055
S9_D11 hbo,0.02018724400234055,0.02018724400234055,0.01960210649502633,0.02018724400234055,0.018431831480397894,0.02018724400234055,0.016676418958455237,0.017261556465769455,0.017261556465769455,0.017554125219426564,0.019016968987712112,0.017261556465769455,0.02018724400234055,0.017554125219426564,0.01492100643651258,0.012580456407255705,0.01960210649502633,0.01930953774136922,0.02018724400234055,0.019016968987712112,0.02018724400234055,0.02018724400234055,0.02018724400234055,0.02018724400234055,0.02018724400234055,0.02018724400234055,0.02018724400234055,0.02018724400234055,0.02018724400234055,0.017846693973083673,0.019016968987712112,0.01960210649502633,0.01930953774136922,0.01989467524868344,0.02018724400234055,0.019016968987712112,0.02018724400234055,0.02018724400234055,0.016968987712112346,0.02018724400234055,0.02018724400234055,0.018724400234055003,0.02018724400234055,0.01930953774136922,0.01930953774136922,0.02018724400234055,0.01989467524868344,0.02018724400234055,0.02018724400234055,0.02018724400234055,0.02018724400234055,0.02018724400234055
S10_D9 hbo,0.019442644199611146,0.019442644199611146,0.019442644199611146,0.019442644199611146,0.019442644199611146,0.019442644199611146,0.01847051198963059,0.01911860012961763,0.01911860012961763,0.019442644199611146,0.019442644199611146,0.01911860012961763,0.019442644199611146,0.019442644199611146,0.016526247569669476,0.013933895009721323,0.019442644199611146,0.019442644199611146,0.019442644199611146,0.019442644199611146,0.019442644199611146,0.019442644199611146,0.019442644199611146,0.019442644199611146,0.019442644199611146,0.019442644199611146,0.019442644199611146,0.019442644199611146,0.019442644199611146,0.019442644199611146,0.019442644199611146,0.019442644199611146,0.019442644199611146,0.019442644199611146,0.019442644199611146,0.019442644199611146,0.019442644199611146,0.019442644199611146,0.018794556059624108,0.019442644199611146,0.019442644199611146,0.019442644199611146,0.019442644199611146,0.019442644199611146,0.019442644199611146,0.019442644199611146,0.019442644199611146,0.019442644199611146,0.019442644199611146,0.019442644199611146,0.019442644199611146,0.019442644199611146
S10_D10 hbo,0.019668100799016593,0.019668100799016593,0.019668100799016593,0.019668100799016593,0.01936078672403196,0.019668100799016593,0.017516902274124155,0.018131530424093423,0.018131530424093423,0.01843884449907806,0.019668100799016593,0.018131530424093423,0.019668100799016593,0.01843884449907806,0.01567301782421635,0.013214505224339274,0.019668100799016593,0.019668100799016593,0.019668100799016593,0.019668100799016593,0.019668100799016593,0.019668100799016593,0.019668100799016593,0.019668100799016593,0.019668100799016593,0.019668100799016593,0.019668100799016593,0.019668100799016593,0.019668100799016593,0.018746158574062692,0.019668100799016593,0.019668100799016593,0.019668100799016593,0.019668100799016593,0.019668100799016593,0.019668100799016593,0.019668100799016593,0.019668100799016593,0.01782421634910879,0.019668100799016593,0.019668100799016593,0.019668100799016593,0.019668100799016593,0.019668100799016593,0.019668100799016593,0.019668100799016593,0.019668100799016593,0.019668100799016593,0.019668100799016593,0.019668100799016593,0.019668100799016593,0.019668100799016593
S10_D12 hbo,0.01981981981981982,0.01981981981981982,0.01981981981981982,0.01981981981981982,0.01891891891891892,0.01981981981981982,0.017117117117117116,0.017717717717717716,0.017717717717717716,0.018018018018018018,0.01951951951951952,0.017717717717717716,0.01981981981981982,0.018018018018018018,0.015315315315315315,0.012912912912912912,0.01981981981981982,0.01981981981981982,0.01981981981981982,0.01951951951951952,0.01981981981981982,0.01981981981981982,0.01981981981981982,0.01981981981981982,0.01981981981981982,0.01981981981981982,0.01981981981981982,0.01981981981981982,0.01981981981981982,0.01831831831831832,0.01951951951951952,0.01981981981981982,0.01981981981981982,0.01981981981981982,0.01981981981981982,0.01951951951951952,0.01981981981981982,0.01981981981981982,0.017417417417417418,0.01981981981981982,0.01981981981981982,0.01921921921921922,0.01981981981981982,0.01981981981981982,0.01981981981981982,0.01981981981981982,0.01981981981981982,0.01981981981981982,0.01981981981981982,0.01981981981981982,0.01981981981981982,0.01981981981981982
S11_D9 hbo,0.01973284760170006,0.01973284760170006,0.01973284760170006,0.01973284760170006,0.01912568306010929,0.01973284760170006,0.017304189435336976,0.01791135397692775,0.01791135397692775,0.018214936247723135,0.01973284760170006,0.01791135397692775,0.01973284760170006,0.018214936247723135,0.015482695810564663,0.013054037644201578,0.01973284760170006,0.01973284760170006,0.01973284760170006,0.01973284760170006,0.01973284760170006,0.01973284760170006,0.01973284760170006,0.01973284760170006,0.01973284760170006,0.01973284760170006,0.01973284760170006,0.01973284760170006,0.01973284760170006,0.018518518518518517,0.01973284760170006,0.01973284760170006,0.01973284760170006,0.01973284760170006,0.01973284760170006,0.01973284760170006,0.01973284760170006,0.01973284760170006,0.017607771706132362,0.01973284760170006,0.01973284760170006,0.019429265330904676,0.01973284760170006,0.01973284760170006,0.01973284760170006,0.01973284760170006,0.01973284760170006,0.01973284760170006,0.01973284760170006,0.01973284760170006,0.01973284760170006,0.01973284760170006
S11_D11 hbo,0.019928613920285543,0.019928613920285543,0.019928613920285543,0.019928613920285543,0.018738845925044618,0.019928613920285543,0.016954193932183226,0.01754907792980369,0.01754907792980369,0.01784651992861392,0.01933372992266508,0.01754907792980369,0.019928613920285543,0.01784651992861392,0.015169541939321832,0.012790005948839975,0.019928613920285543,0.019631171921475312,0.019928613920285543,0.01933372992266508,0.019928613920285543,0.019928613920285543,0.019928613920285543,0.019928613920285543,0.019928613920285543,0.019928613920285543,0.019928613920285543,0.019928613920285543,0.019928613920285543,0.01814396192742415,0.01933372992266508,0.019928613920285543,0.019631171921475312,0.019928613920285543,0.019928613920285543,0.01933372992266508,0.019928613920285543,0.019928613920285543,0.017251635930993457,0.019928613920285543,0.019928613920285543,0.01903628792385485,0.019928613920285543,0.019631171921475312,0.019631171921475312,0.019928613920285543,0.019928613920285543,0.019928613920285543,0.019928613920285543,0.019928613920285543,0.019928613920285543,0.019928613920285543
S11_D12 hbo,0.02018724400234055,0.02018724400234055,0.01960210649502633,0.02018724400234055,0.018431831480397894,0.02018724400234055,0.016676418958455237,0.017261556465769455,0.017261556465769455,0.017554125219426564,0.019016968987712112,0.017261556465769455,0.02018724400234055,0.017554125219426564,0.01492100643651258,0.012580456407255705,0.01960210649502633,0.01930953774136922,0.02018724400234055,0.019016968987712112,0.02018724400234055,0.02018724400234055,0.02018724400234055,0.02018724400234055,0.02018724400234055,0.02018724400234055,0.02018724400234055,0.02018724400234055,0.02018724400234055,0.017846693973083673,0.019016968987712112,0.01960210649502633,0.01930953774136922,0.01989467524868344,0.02018724400234055,0.019016968987712112,0.02018724400234055,0.02018724400234055,0.016968987712112346,0.02018724400234055,0.02018724400234055,0.018724400234055003,0.02018724400234055,0.01930953774136922,0.01930953774136922,0.02018724400234055,0.01989467524868344,0.02018724400234055,0.02018724400234055,0.02018724400234055,0.02018724400234055,0.02018724400234055
S11_D13 hbo,0.019668100799016593,0.019668100799016593,0.019668100799016593,0.019668100799016593,0.01936078672403196,0.019668100799016593,0.017516902274124155,0.018131530424093423,0.018131530424093423,0.01843884449907806,0.019668100799016593,0.018131530424093423,0.019668100799016593,0.01843884449907806,0.01567301782421635,0.013214505224339274,0.019668100799016593,0.019668100799016593,0.019668100799016593,0.019668100799016593,0.019668100799016593,0.019668100799016593,0.019668100799016593,0.019668100799016593,0.019668100799016593,0.019668100799016593,0.019668100799016593,0.019668100799016593,0.019668100799016593,0.018746158574062692,0.019668100799016593,0.019668100799016593,0.019668100799016593,0.019668100799016593,0.019668100799016593,0.019668100799016593,0.019668100799016593,0.019668100799016593,0.01782421634910879,0.019668100799016593,0.019668100799016593,0.019668100799016593,0.019668100799016593,0.019668100799016593,0.019668100799016593,0.019668100799016593,0.019668100799016593,0.019668100799016593,0.019668100799016593,0.019668100799016593,0.019668100799016593,0.019668100799016593
S12_D10 hbo,0.02018724400234055,0.02018724400234055,0.01960210649502633,0.02018724400234055,0.018431831480397894,0.02018724400234055,0.016676418958455237,0.017261556465769455,0.017261556465769455,0.017554125219426564,0.019016968987712112,0.017261556465769455,0.02018724400234055,0.017554125219426564,0.01492100643651258,0.012580456407255705,0.01960210649502633,0.01930953774136922,0.02018724400234055,0.019016968987712112,0.02018724400234055,0.02018724400234055,0.02018724400234055,0.02018724400234055,0.02018724400234055,0.02018724400234055,0.02018724400234055,0.02018724400234055,0.02018724400234055,0.017846693973083673,0.019016968987712112,0.01960210649502633,0.01930953774136922,0.01989467524868344,0.02018724400234055,0.019016968987712112,0.02018724400234055,0.02018724400234055,0.016968987712112346,0.02018724400234055,0.02018724400234055,0.018724400234055003,0.02018724400234055,0.01930953774136922,0.01930953774136922,0.02018724400234055,0.01989467524868344,0.02018724400234055,0.02018724400234055,0.02018724400234055,0.02018724400234055,0.02018724400234055
S12_D12 hbo,0.020053081686818047,0.020053081686818047,0.01975818342671778,0.020053081686818047,0.01857859038631672,0.020053081686818047,0.016809200825715128,0.01739899734591566,0.01739899734591566,0.017693895606015926,0.019168386906517253,0.01739899734591566,0.020053081686818047,0.017693895606015926,0.015039811265113535,0.012680625184311413,0.01975818342671778,0.019463285166617515,0.020053081686818047,0.019168386906517253,0.020053081686818047,0.020053081686818047,0.020053081686818047,0.020053081686818047,0.020053081686818047,0.020053081686818047,0.020053081686818047,0.020053081686818047,0.020053081686818047,0.01798879386611619,0.019168386906517253,0.01975818342671778,0.019463285166617515,0.020053081686818047,0.020053081686818047,0.019168386906517253,0.020053081686818047,0.020053081686818047,0.017104099085815394,0.020053081686818047,0.020053081686818047,0.018873488646416987,0.020053081686818047,0.019463285166617515,0.019463285166617515,0.020053081686818047,0.020053081686818047,0.020053081686818047,0.020053081686818047,0.020053081686818047,0.020053081686818047,0.020053081686818047
S12_D14 hbo,0.01936141304347826,0.01936141304347826,0.01936141304347826,0.01936141304347826,0.01936141304347826,0.01936141304347826,0.01936141304347826,0.01936141304347826,0.01936141304347826,0.01936141304347826,0.01936141304347826,0.01936141304347826,0.01936141304347826,0.01936141304347826,0.017323369565217392,0.014605978260869566,0.01936141304347826,0.01936141304347826,0.01936141304347826,0.01936141304347826,0.01936141304347826,0.01936141304347826,0.01936141304347826,0.01936141304347826,0.01936141304347826,0.01936141304347826,0.01936141304347826,0.01936141304347826,0.01936141304347826,0.01936141304347826,0.01936141304347826,0.01936141304347826,0.01936141304347826,0.01936141304347826,0.01936141304347826,0.01936141304347826,0.01936141304347826,0.01936141304347826,0.01936141304347826,0.01936141304347826,0.01936141304347826,0.01936141304347826,0.01936141304347826,0.01936141304347826,0.01936141304347826,0.01936141304347826,0.01936141304347826,0.01936141304347826,0.01936141304347826,0.01936141304347826,0.01936141304347826,0.01936141304347826
S13_D6 hbo,0.02018724400234055,0.02018724400234055,0.01960210649502633,0.02018724400234055,0.018431831480397894,0.02018724400234055,0.016676418958455237,0.017261556465769455,0.017261556465769455,0.017554125219426564,0.019016968987712112,0.017261556465769455,0.02018724400234055,0.017554125219426564,0.01492100643651258,0.012580456407255705,0.01960210649502633,0.01930953774136922,0.02018724400234055,0.019016968987712112,0.02018724400234055,0.02018724400234055,0.02018724400234055,0.02018724400234055,0.02018724400234055,0.02018724400234055,0.02018724400234055,0.02018724400234055,0.02018724400234055,0.017846693973083673,0.019016968987712112,0.01960210649502633,0.01930953774136922,0.01989467524868344,0.02018724400234055,0.019016968987712112,0.02018724400234055,0.02018724400234055,0.016968987712112346,0.02018724400234055,0.02018724400234055,0.018724400234055003,0.02018724400234055,0.01930953774136922,0.01930953774136922,0.02018724400234055,0.01989467524868344,0.02018724400234055,0.02018724400234055,0.02018724400234055,0.02018724400234055,0.02018724400234055
S13_D11 hbo,0.02018724400234055,0.02018724400234055,0.01960210649502633,0.02018724400234055,0.018431831480397894,0.02018724400234055,0.016676418958455237,0.017261556465769455,0.017261556465769455,0.017554125219426564,0.019016968987712112,0.017261556465769455,0.02018724400234055,0.017554125219426564,0.01492100643651258,0.012580456407255705,0.01960210649502633,0.01930953774136922,0.02018724400234055,0.019016968987712112,0.02018724400234055,0.02018724400234055,0.02018724400234055,0.02018724400234055,0.02018724400234055,0.02018724400234055,0.02018724400234055,0.02018724400234055,0.02018724400234055,0.017846693973083673,0.019016968987712112,0.01960210649502633,0.01930953774136922,0.01989467524868344,0.02018724400234055,0.019016968987712112,0.02018724400234055,0.02018724400234055,0.016968987712112346,0.02018724400234055,0.02018724400234055,0.018724400234055003,0.02018724400234055,0.01930953774136922,0.01930953774136922,0.02018724400234055,0.01989467524868344,0.02018724400234055,0.02018724400234055,0.02018724400234055,0.02018724400234055,0.02018724400234055
S13_D13 hbo,0.0196078431372549,0.0196078431372549,0.0196078431372549,0.0196078431372549,0.0196078431372549,0.0196078431372549,0.017740429505135387,0.01836290071584189,0.01836290071584189,0.018674136321195144,0.0196078431372549,0.01836290071584189,0.0196078431372549,0.018674136321195144,0.015873015873015872,0.013383131030189854,0.0196078431372549,0.0196078431372549,0.0196078431372549,0.0196078431372549,0.0196078431372549,0.0196078431372549,0.0196078431372549,0.0196078431372549,0.0196078431372549,0.0196078431372549,0.0196078431372549,0.0196078431372549,0.0196078431372549,0.018985371926548398,0.0196078431372549,0.0196078431372549,0.0196078431372549,0.0196078431372549,0.0196078431372549,0.0196078431372549,0.0196078431372549,0.0196078431372549,0.01805166511048864,0.0196078431372549,0.0196078431372549,0.0196078431372549,0.0196078431372549,0.0196078431372549,0.0196078431372549,0.0196078431372549,0.0196078431372549,0.0196078431372549,0.0196078431372549,0.0196078431372549,0.0196078431372549,0.0196078431372549
S13_D15 hbo,0.02018724400234055,0.02018724400234055,0.01960210649502633,0.02018724400234055,0.018431831480397894,0.02018724400234055,0.016676418958455237,0.017261556465769455,0.017261556465769455,0.017554125219426564,0.019016968987712112,0.017261556465769455,0.02018724400234055,0.017554125219426564,0.01492100643651258,0.012580456407255705,0.01960210649502633,0.01930953774136922,0.02018724400234055,0.019016968987712112,0.02018724400234055,0.02018724400234055,0.02018724400234055,0.02018724400234055,0.02018724400234055,0.02018724400234055,0.02018724400234055,0.02018724400234055,0.02018724400234055,0.017846693973083673,0.019016968987712112,0.01960210649502633,0.01930953774136922,0.01989467524868344,0.02018724400234055,0.019016968987712112,0.02018724400234055,0.02018724400234055,0.016968987712112346,0.02018724400234055,0.02018724400234055,0.018724400234055003,0.02018724400234055,0.01930953774136922,0.01930953774136922,0.02018724400234055,0.01989467524868344,0.02018724400234055,0.02018724400234055,0.02018724400234055,0.02018724400234055,0.02018724400234055
S14_D12 hbo,0.01973284760170006,0.01973284760170006,0.01973284760170006,0.01973284760170006,0.01912568306010929,0.01973284760170006,0.017304189435336976,0.01791135397692775,0.01791135397692775,0.018214936247723135,0.01973284760170006,0.01791135397692775,0.01973284760170006,0.018214936247723135,0.015482695810564663,0.013054037644201578,0.01973284760170006,0.01973284760170006,0.01973284760170006,0.01973284760170006,0.01973284760170006,0.01973284760170006,0.01973284760170006,0.01973284760170006,0.01973284760170006,0.01973284760170006,0.01973284760170006,0.01973284760170006,0.01973284760170006,0.018518518518518517,0.01973284760170006,0.01973284760170006,0.01973284760170006,0.01973284760170006,0.01973284760170006,0.01973284760170006,0.01973284760170006,0.01973284760170006,0.017607771706132362,0.01973284760170006,0.01973284760170006,0.019429265330904676,0.01973284760170006,0.01973284760170006,0.01973284760170006,0.01973284760170006,0.01973284760170006,0.01973284760170006,0.01973284760170006,0.01973284760170006,0.01973284760170006,0.01973284760170006
S14_D13 hbo,0.01973284760170006,0.01973284760170006,0.01973284760170006,0.01973284760170006,0.01912568306010929,0.01973284760170006,0.017304189435336976,0.01791135397692775,0.01791135397692775,0.018214936247723135,0.01973284760170006,0.01791135397692775,0.01973284760170006,0.018214936247723135,0.015482695810564663,0.013054037644201578,0.01973284760170006,0.01973284760170006,0.01973284760170006,0.01973284760170006,0.01973284760170006,0.01973284760170006,0.01973284760170006,0.01973284760170006,0.01973284760170006,0.01973284760170006,0.01973284760170006,0.01973284760170006,0.01973284760170006,0.018518518518518517,0.01973284760170006,0.01973284760170006,0.01973284760170006,0.01973284760170006,0.01973284760170006,0.01973284760170006,0.01973284760170006,0.01973284760170006,0.017607771706132362,0.01973284760170006,0.01973284760170006,0.019429265330904676,0.01973284760170006,0.01973284760170006,0.01973284760170006,0.01973284760170006,0.01973284760170006,0.01973284760170006,0.01973284760170006,0.01973284760170006,0.01973284760170006,0.01973284760170006
S14_D14 hbo,0.02018724400234055,0.02018724400234055,0.01960210649502633,0.02018724400234055,0.018431831480397894,0.02018724400234055,0.016676418958455237,0.017261556465769455,0.017261556465769455,0.017554125219426564,0.019016968987712112,0.017261556465769455,0.02018724400234055,0.017554125219426564,0.01492100643651258,0.012580456407255705,0.01960210649502633,0.01930953774136922,0.02018724400234055,0.019016968987712112,0.02018724400234055,0.02018724400234055,0.02018724400234055,0.02018724400234055,0.02018724400234055,0.02018724400234055,0.02018724400234055,0.02018724400234055,0.02018724400234055,0.017846693973083673,0.019016968987712112,0.01960210649502633,0.01930953774136922,0.01989467524868344,0.02018724400234055,0.019016968987712112,0.02018724400234055,0.02018724400234055,0.016968987712112346,0.02018724400234055,0.02018724400234055,0.018724400234055003,0.02018724400234055,0.01930953774136922,0.01930953774136922,0.02018724400234055,0.01989467524868344,0.02018724400234055,0.02018724400234055,0.02018724400234055,0.02018724400234055,0.02018724400234055
S14_D16 hbo,0.019928613920285543,0.019928613920285543,0.019928613920285543,0.019928613920285543,0.018738845925044618,0.019928613920285543,0.016954193932183226,0.01754907792980369,0.01754907792980369,0.01784651992861392,0.01933372992266508,0.01754907792980369,0.019928613920285543,0.01784651992861392,0.015169541939321832,0.012790005948839975,0.019928613920285543,0.019631171921475312,0.019928613920285543,0.01933372992266508,0.019928613920285543,0.019928613920285543,0.019928613920285543,0.019928613920285543,0.019928613920285543,0.019928613920285543,0.019928613920285543,0.019928613920285543,0.019928613920285543,0.01814396192742415,0.01933372992266508,0.019928613920285543,0.019631171921475312,0.019928613920285543,0.019928613920285543,0.01933372992266508,0.019928613920285543,0.019928613920285543,0.017251635930993457,0.019928613920285543,0.019928613920285543,0.01903628792385485,0.019928613920285543,0.019631171921475312,0.019631171921475312,0.019928613920285543,0.019928613920285543,0.019928613920285543,0.019928613920285543,0.019928613920285543,0.019928613920285543,0.019928613920285543
S15_D13 hbo,0.02018724400234055,0.02018724400234055,0.01960210649502633,0.02018724400234055,0.018431831480397894,0.02018724400234055,0.016676418958455237,0.017261556465769455,0.017261556465769455,0.017554125219426564,0.019016968987712112,0.017261556465769455,0.02018724400234055,0.017554125219426564,0.01492100643651258,0.012580456407255705,0.01960210649502633,0.01930953774136922,0.02018724400234055,0.019016968987712112,0.02018724400234055,0.02018724400234055,0.02018724400234055,0.02018724400234055,0.02018724400234055,0.02018724400234055,0.02018724400234055,0.02018724400234055,0.02018724400234055,0.017846693973083673,0.019016968987712112,0.01960210649502633,0.01930953774136922,0.01989467524868344,0.02018724400234055,0.019016968987712112,0.02018724400234055,0.02018724400234055,0.016968987712112346,0.02018724400234055,0.02018724400234055,0.018724400234055003,0.02018724400234055,0.01930953774136922,0.01930953774136922,0.02018724400234055,0.01989467524868344,0.02018724400234055,0.02018724400234055,0.02018724400234055,0.02018724400234055,0.02018724400234055
S15_D15 hbo,0.02018724400234055,0.02018724400234055,0.01960210649502633,0.02018724400234055,0.018431831480397894,0.02018724400234055,0.016676418958455237,0.017261556465769455,0.017261556465769455,0.017554125219426564,0.019016968987712112,0.017261556465769455,0.02018724400234055,0.017554125219426564,0.01492100643651258,0.012580456407255705,0.01960210649502633,0.01930953774136922,0.02018724400234055,0.019016968987712112,0.02018724400234055,0.02018724400234055,0.02018724400234055,0.02018724400234055,0.02018724400234055,0.02018724400234055,0.02018724400234055,0.02018724400234055,0.02018724400234055,0.017846693973083673,0.019016968987712112,0.01960210649502633,0.01930953774136922,0.01989467524868344,0.02018724400234055,0.019016968987712112,0.02018724400234055,0.02018724400234055,0.016968987712112346,0.02018724400234055,0.02018724400234055,0.018724400234055003,0.02018724400234055,0.01930953774136922,0.01930953774136922,0.02018724400234055,0.01989467524868344,0.02018724400234055,0.02018724400234055,0.02018724400234055,0.02018724400234055,0.02018724400234055
S15_D16 hbo,0.02018724400234055,0.02018724400234055,0.01960210649502633,0.02018724400234055,0.018431831480397894,0.02018724400234055,0.016676418958455237,0.017261556465769455,0.017261556465769455,0.017554125219426564,0.019016968987712112,0.017261556465769455,0.02018724400234055,0.017554125219426564,0.01492100643651258,0.012580456407255705,0.01960210649502633,0.01930953774136922,0.02018724400234055,0.019016968987712112,0.02018724400234055,0.02018724400234055,0.02018724400234055,0.02018724400234055,0.02018724400234055,0.02018724400234055,0.02018724400234055,0.02018724400234055,0.02018724400234055,0.017846693973083673,0.019016968987712112,0.01960210649502633,0.01930953774136922,0.01989467524868344,0.02018724400234055,0.019016968987712112,0.02018724400234055,0.02018724400234055,0.016968987712112346,0.02018724400234055,0.02018724400234055,0.018724400234055003,0.02018724400234055,0.01930953774136922,0.01930953774136922,0.02018724400234055,0.01989467524868344,0.02018724400234055,0.02018724400234055,0.02018724400234055,0.02018724400234055,0.02018724400234055
S16_D14 hbo,0.02018724400234055,0.02018724400234055,0.01960210649502633,0.02018724400234055,0.018431831480397894,0.02018724400234055,0.016676418958455237,0.017261556465769455,0.017261556465769455,0.017554125219426564,0.019016968987712112,0.017261556465769455,0.02018724400234055,0.017554125219426564,0.01492100643651258,0.012580456407255705,0.01960210649502633,0.01930953774136922,0.02018724400234055,0.019016968987712112,0.02018724400234055,0.02018724400234055,0.02018724400234055,0.02018724400234055,0.02018724400234055,0.02018724400234055,0.02018724400234055,0.02018724400234055,0.02018724400234055,0.017846693973083673,0.019016968987712112,0.01960210649502633,0.01930953774136922,0.01989467524868344,0.02018724400234055,0.019016968987712112,0.02018724400234055,0.02018724400234055,0.016968987712112346,0.02018724400234055,0.02018724400234055,0.018724400234055003,0.02018724400234055,0.01930953774136922,0.01930953774136922,0.02018724400234055,0.01989467524868344,0.02018724400234055,0.02018724400234055,0.02018724400234055,0.02018724400234055,0.02018724400234055
S16_D16 hbo,0.02018724400234055,0.02018724400234055,0.01960210649502633,0.02018724400234055,0.018431831480397894,0.02018724400234055,0.016676418958455237,0.017261556465769455,0.017261556465769455,0.017554125219426564,0.019016968987712112,0.017261556465769455,0.02018724400234055,0.017554125219426564,0.01492100643651258,0.012580456407255705,0.01960210649502633,0.01930953774136922,0.02018724400234055,0.019016968987712112,0.02018724400234055,0.02018724400234055,0.02018724400234055,0.02018724400234055,0.02018724400234055,0.02018724400234055,0.02018724400234055,0.02018724400234055,0.02018724400234055,0.017846693973083673,0.019016968987712112,0.01960210649502633,0.01930953774136922,0.01989467524868344,0.02018724400234055,0.019016968987712112,0.02018724400234055,0.02018724400234055,0.016968987712112346,0.02018724400234055,0.02018724400234055,0.018724400234055003,0.02018724400234055,0.01930953774136922,0.01930953774136922,0.02018724400234055,0.01989467524868344,0.02018724400234055,0.02018724400234055,0.02018724400234055,0.02018724400234055,0.02018724400234055
