,S1_D1 hbo,S1_D3 hbo,S2_D1 hbo,S2_D2 hbo,S2_D4 hbo,S3_D1 hbo,S3_D3 hbo,S3_D4 hbo,S3_D5 hbo,S4_D2 hbo,S4_D4 hbo,S4_D6 hbo,S4_D11 hbo,S5_D3 hbo,S5_D5 hbo,S5_D7 hbo,S6_D4 hbo,S6_D5 hbo,S6_D6 hbo,S6_D8 hbo,S7_D5 hbo,S7_D7 hbo,S7_D8 hbo,S8_D6 hbo,S8_D8 hbo,S8_D15 hbo,S9_D2 hbo,S9_D9 hbo,S9_D11 hbo,S10_D9 hbo,S10_D10 hbo,S10_D12 hbo,S11_D9 hbo,S11_D11 hbo,S11_D12 hbo,S11_D13 hbo,S12_D10 hbo,S12_D12 hbo,S12_D14 hbo,S13_D6 hbo,S13_D11 hbo,S13_D13 hbo,S13_D15 hbo,S14_D12 hbo,S14_D13 hbo,S14_D14 hbo,S14_D16 hbo,S15_D13 hbo,S15_D15 hbo,S15_D16 hbo,S16_D14 hbo,S16_D16 hbo
S1_D1 hbo,0.03008568767900468,0.022159245066449194,0.016540169373711344,0.018871123405947758,0.018648023204506,0.01948764621729178,0.01948764621729178,0.018536473103785117,0.019376096116570898,0.018871123405947758,0.017491342487218002,0.019170588512789556,0.019282138613510438,0.018871123405947758,0.018965080909008218,0.01687481967587398,0.018965080909008218,0.01948764621729178,0.01948764621729178,0.019376096116570898,0.01801390779550156,0.01803150039316198,0.019170588512789556,0.019282138613510438,0.019059038412068678,0.01875957330522688,0.01696877717893444,0.019282138613510438,0.018442515600724657,0.019282138613510438,0.021131707047542497,0.01948764621729178,0.019170588512789556,0.018536473103785117,0.01885353080828734,0.01885353080828734,0.019076631009729096,0.01948764621729178,0.01948764621729178,0.018648023204506,0.01948764621729178,0.019282138613510438,0.019282138613510438,0.019282138613510438,0.019076631009729096,0.019170588512789556,0.01948764621729178,0.019282138613510438,0.019170588512789556,0.019282138613510438,0.01885353080828734,0.019282138613510438
S1_D3 hbo,0.021599901495867838,0.022730231376436615,0.0162755920005177,0.01916008608535967,0.01864125233198209,0.01977158221255087,0.01977158221255087,0.018740083804052315,0.019357749029500125,0.018542420859911864,0.017510922451413315,0.019357749029500125,0.019567750170153803,0.01885125347263577,0.018950084944705993,0.017103258366619186,0.01915391698710306,0.019666581642224026,0.019666581642224026,0.019357749029500125,0.017510922451413315,0.01823358824718796,0.018746252902308927,0.019462749599826964,0.01904891641677622,0.018950084944705993,0.017615923021740153,0.01915391698710306,0.018437420289585026,0.0192589175574299,0.02119840650933032,0.019666581642224026,0.019357749029500125,0.018740083804052315,0.018845084374379158,0.01904891641677622,0.01885125347263577,0.020284246867671836,0.01977158221255087,0.018845084374379158,0.01997541425494793,0.01977158221255087,0.019462749599826964,0.019462749599826964,0.019567750170153803,0.019357749029500125,0.019666581642224026,0.02008041482527477,0.019357749029500125,0.01977158221255087,0.01864125233198209,0.02008041482527477
S2_D1 hbo,0.012824792198442306,0.013004777799594214,0.022081601060847937,0.02109345876835782,0.021471072828007753,0.013184763400746122,0.018125474863196718,0.021686344143851892,0.021506358542699985,0.01990768801736968,0.021273444369509727,0.021471072828007753,0.020267659219673495,0.016364461594060617,0.01674207565371055,0.012824792198442306,0.02087818745251368,0.02165105842915966,0.018933631554534924,0.01853837463753888,0.02096640173924426,0.013004777799594214,0.01819604629258118,0.020518216250209866,0.02130873008420196,0.01972770241621777,0.019314802641875607,0.021848686887657683,0.020482930535517634,0.021471072828007753,0.016777361368402778,0.0218663297450038,0.021273444369509727,0.022046315346155705,0.021686344143851892,0.02130873008420196,0.017225546857437178,0.01891598869718881,0.013184763400746122,0.019148902870379063,0.02165105842915966,0.02096640173924426,0.02109345876835782,0.019706502531180906,0.019508874072682883,0.01968885967383479,0.019491231215336767,0.018305460464348625,0.019508874072682883,0.01891598869718881,0.019328888471530973,0.017730217946200666
S2_D2 hbo,0.013119322107450994,0.013839925541451827,0.01973893828048718,0.02295367467781261,0.022225077227903685,0.013831931525543736,0.01802136686252006,0.02151246780981094,0.020127219053165918,0.02185278448704113,0.021844790471133038,0.021180145148488844,0.0222090891960875,0.016746321325179437,0.01692847068765667,0.012564880004111208,0.021354300495057987,0.021544443873443307,0.018575808965859843,0.01821151024090538,0.020127219053165918,0.013285483438112042,0.017689044201197962,0.020301374399735055,0.020657679108781427,0.020261404320194597,0.021670635124563898,0.023119836008473657,0.022573387921041965,0.022415220606289005,0.017308757444427315,0.02083982847125866,0.021172151132580752,0.022217083211995593,0.020119225037257826,0.019762920328211454,0.016786291404719895,0.018932113674906215,0.013831931525543736,0.01803735489433624,0.02190074858248968,0.020151201100890193,0.021005989801919707,0.018749964312428983,0.019288418383952587,0.01874197029652089,0.01874197029652089,0.018377671571566428,0.018749964312428983,0.01856781494995175,0.01821151024090538,0.01802136686252006
S2_D4 hbo,0.013610648600869813,0.013610648600869813,0.01922794560292248,0.02168071816828325,0.022199390367453373,0.013783539333926521,0.018029823834988093,0.022018424058754954,0.020466445249065435,0.020792037776074565,0.021491676283943113,0.02168071816828325,0.02131474776306555,0.016272651989675008,0.016972290497543556,0.012384262318189426,0.021503789647405687,0.021684755956104106,0.01891446643937592,0.018737537918498352,0.02046240746124458,0.01308793861387883,0.01821886571932823,0.020635298194301287,0.021162045969113127,0.020619147043017858,0.020080285904743443,0.022722100354444358,0.02131474776306555,0.02220342815527423,0.01732614753929869,0.021162045969113127,0.021676680380462394,0.022541134045745932,0.020635298194301287,0.020285478940367013,0.017161332381883693,0.01891042865155506,0.013783539333926521,0.018564647185441645,0.021857646689160817,0.019951810837716168,0.02115800818129227,0.01891446643937592,0.018918504227196778,0.019087357172432626,0.01891042865155506,0.018029823834988093,0.019264285693310193,0.01856060939762079,0.018564647185441645,0.017852895314110526
S3_D1 hbo,0.019300262688737125,0.02002482200797929,0.01642305252623258,0.019310776245969177,0.01878872806483961,0.019918309660306964,0.019918309660306964,0.018682215717167286,0.01970528496496232,0.018692729274399335,0.017659146469372257,0.01950277382684972,0.01971579852219437,0.019001752760184256,0.019097751550624528,0.017254124193147063,0.019300262688737125,0.01981179731263464,0.019609286174522046,0.01950277382684972,0.01786165760748485,0.018383705788614417,0.018895240412511935,0.01940677503640945,0.019193750341064804,0.018895240412511935,0.017456635331259657,0.019300262688737125,0.018586216926727014,0.01940677503640945,0.019918309660306964,0.01981179731263464,0.01950277382684972,0.018884726855279883,0.018991239202952204,0.019193750341064804,0.019001752760184256,0.020429844284204482,0.019918309660306964,0.01878872806483961,0.020120820798419564,0.019918309660306964,0.01940677503640945,0.019609286174522046,0.01971579852219437,0.01950277382684972,0.01981179731263464,0.020227333146091885,0.01950277382684972,0.019918309660306964,0.018991239202952204,0.020227333146091885
S3_D3 hbo,0.015433767213260126,0.015784149551004517,0.018161807966891184,0.019802275081635203,0.01965440388200341,0.01580236286383145,0.020225510670687327,0.019672617194830343,0.02044623512162686,0.01869648812992123,0.01889899926803383,0.020243723983514265,0.019838701707289075,0.018143594654064246,0.017627127803861133,0.013886531359667097,0.019856915020116005,0.020428021808799927,0.020225510670687327,0.020243723983514265,0.019101510406146424,0.014641935973636677,0.019636190569176475,0.020022999532574734,0.020059426158228602,0.019267594918605153,0.01759070117820726,0.020041212845401668,0.018714701442748168,0.020022999532574734,0.018566830243116374,0.020428021808799927,0.020243723983514265,0.019875128332942943,0.019856915020116005,0.020059426158228602,0.019249381605778215,0.02079661745937125,0.01580236286383145,0.01965440388200341,0.020612319634085587,0.020409808495972993,0.020022999532574734,0.020225510670687327,0.020207297357860397,0.020243723983514265,0.020428021808799927,0.020409808495972993,0.020243723983514265,0.020409808495972993,0.019856915020116005,0.020225510670687327
S3_D4 hbo,0.013339859177096496,0.01333550779742722,0.019434548630774033,0.02101232212663079,0.022062720663978862,0.013512749910153204,0.01783501823657091,0.022594447002156813,0.021176510100348944,0.020152219841016523,0.02119826699869532,0.021885478551252877,0.0206795947995252,0.015920166033939292,0.016447540992447968,0.012462351372805127,0.021366806352082754,0.021530994325800912,0.01887671401458043,0.018885416773918983,0.020653486521509543,0.01333550779742722,0.01852658116879774,0.02101232212663079,0.02170388505885762,0.02102972764530789,0.019292117555402256,0.022244314156374123,0.02050670406646849,0.02171258781819617,0.016970564571287365,0.02134940083340565,0.02171258781819617,0.02276733773521352,0.02099926798762296,0.020649135141840268,0.017480534011118938,0.018703823281523722,0.013512749910153204,0.01939973759341983,0.021885478551252877,0.02028594815704975,0.021358103592744204,0.019049604747637137,0.019049604747637137,0.019222495480693845,0.019049604747637137,0.018189502462022875,0.01939973759341983,0.018703823281523722,0.019045253367967863,0.01748923677045749
S3_D5 hbo,0.01410896468726977,0.0140975259204342,0.019681655347944034,0.02018514963981083,0.02055131587928355,0.014280609040170561,0.0185717178626903,0.02126077082455785,0.021798581416931362,0.019326927875306883,0.01985329970084482,0.02144385394429421,0.019864738467680394,0.016649313680274905,0.016843835566846835,0.012873137916457531,0.02074583776585548,0.02126077082455785,0.019429939627194248,0.019281172807964597,0.02037967152638276,0.013754237214632621,0.018903567801656307,0.02073439899901991,0.02108912647165706,0.019693094114779604,0.018125417405001357,0.02107768770482149,0.019338366642142453,0.02089460458508513,0.017541851745285563,0.02177570388326022,0.02108912647165706,0.02108912647165706,0.02107768770482149,0.02108912647165706,0.01802246850348122,0.019441378394029818,0.014280609040170561,0.019429939627194248,0.02144385394429421,0.021226454524051138,0.02089460458508513,0.020127955805632976,0.01996775021956776,0.0197846670998314,0.0197846670998314,0.01893788410216302,0.01979610586666697,0.019441378394029818,0.019429939627194248,0.01822842915688872
S4_D2 hbo,0.013620403987311723,0.014184411544904844,0.01956032825996909,0.022680214744660854,0.02209336028456696,0.0143571827957687,0.018073927709696715,0.021379428378610756,0.020020105274200683,0.022461749688795447,0.02202481957706463,0.0210795796818846,0.022438902786294672,0.01731430199873896,0.01729145509623818,0.012665160122989337,0.02125235093274845,0.021275197835249227,0.01851085782142753,0.018119621514698266,0.019801640218335276,0.01342478583394709,0.01777407901297055,0.02019287652506454,0.020365647775928395,0.02007864201256066,0.021852048326200774,0.02300291034388779,0.02300291034388779,0.022311825340432367,0.017728385207969002,0.02075688408265766,0.02105673277938382,0.022070513382066184,0.020170029622563763,0.01962886896747142,0.016818835148648167,0.018683629072291385,0.0143571827957687,0.017946850263834406,0.021643587239477714,0.02008864598170301,0.02090680843102074,0.018683629072291385,0.018879247225656016,0.01866078216979061,0.01866078216979061,0.018073927709696715,0.018488010918926753,0.018488010918926753,0.018292392765562118,0.017705538305468223
S4_D4 hbo,0.012998915033522185,0.013170795404783785,0.019948561670560506,0.02226664500278082,0.022610405745304023,0.013342675776045386,0.01786926951425738,0.022078036930355316,0.0203425055165754,0.02130687693948942,0.024274422994805724,0.02139051544530891,0.021650637682012624,0.01620525226475568,0.01656574070844278,0.012638426589835081,0.021373787744145015,0.02157912351773441,0.018640429505123277,0.01845182143269778,0.020719721661426403,0.012998915033522185,0.017936180318912975,0.020325777815411505,0.021063482403949604,0.020430747382017514,0.020347108876198026,0.02312604685908883,0.021822518053274224,0.022438525374042423,0.01677107648203218,0.020874874331524105,0.021373787744145015,0.022954166487827228,0.020514385887837,0.0201538974441499,0.016821259585523874,0.01862370180395938,0.013342675776045386,0.01846854913386168,0.021751003888996014,0.020015472475216095,0.021030027001621807,0.01881230987638488,0.019000917948810384,0.018984190247646485,0.018795582175220982,0.018041149885518984,0.019000917948810384,0.01843509373153388,0.018640429505123277,0.017680661441831884
S4_D6 hbo,0.013673531769014317,0.01383770043934315,0.019218703381947734,0.02094375413163914,0.021470995161960257,0.014015763117405829,0.018293654972299737,0.021662951847756774,0.02112181680970182,0.019917060086464603,0.020437354112918797,0.02182712051808561,0.020444301116785718,0.016390541544545653,0.016746666900671007,0.012625996712239011,0.021306826491631417,0.021813226510351766,0.019327296021341197,0.01917007435487928,0.02007428175292652,0.013495469090951638,0.018628939316824328,0.021299879487764496,0.021470995161960257,0.020622363794848393,0.018890366041290067,0.021649057840022932,0.020095122764527282,0.02164211083615601,0.017438076601320955,0.021464048158093333,0.021656004843889853,0.021656004843889853,0.020772638457443385,0.02042346010518495,0.017766413941978622,0.01915618034714544,0.014015763117405829,0.018985064672949685,0.021991289188414444,0.020395672089717265,0.021470995161960257,0.01915618034714544,0.019327296021341197,0.01915618034714544,0.01915618034714544,0.01864978032842509,0.019505358699403876,0.018985064672949685,0.018807001994887003,0.017951423623908225
S4_D11 hbo,0.013696619332143504,0.014266961537466698,0.019139442849383098,0.022231059724269937,0.021810739504927446,0.014416983523447401,0.01840937896070976,0.021450557409275497,0.020300173301259668,0.021830785546157624,0.021410465326815134,0.02115051343731409,0.02236103566902046,0.017118672564082667,0.016888466413181244,0.012766095031168361,0.02115051343731409,0.021340627505755154,0.018619539070381004,0.01842942500193994,0.019729831095936474,0.013506505263702439,0.01791922092030729,0.020660355396911613,0.02045019528724037,0.02039005716354983,0.020860169162722125,0.022531103696231344,0.02198080753213833,0.022020899614598688,0.01730878663252373,0.0208304234241225,0.021320581464524972,0.02213082951811903,0.020280127260029486,0.020110059232818604,0.01717881068777321,0.01916983523447402,0.014416983523447401,0.01806924290628799,0.021700809601407103,0.02000012932929826,0.021000491451333383,0.018619539070381004,0.018809653138822068,0.01876956105636171,0.018959675124802775,0.018599493029150822,0.018599493029150822,0.018809653138822068,0.018239310933498877,0.018239310933498877
S5_D3 hbo,0.015872486827910544,0.016697740508817442,0.01793638625613371,0.019588424069859348,0.019793844726470833,0.016903671316066207,0.020413167600128963,0.01917554215408726,0.020000285684356876,0.019381983111973304,0.01876215008767789,0.019794354877108112,0.02020672664224292,0.019588424069859348,0.018555709129791844,0.014841302339754881,0.019794354877108112,0.02020672664224292,0.01979486502774539,0.019588424069859348,0.018350288473180362,0.01566655602066178,0.01917656245536182,0.01958893422049663,0.019381983111973304,0.019382493262610583,0.01834977832254308,0.019793844726470833,0.01938147296133602,0.020000285684356876,0.01917554215408726,0.02000079583499416,0.019794354877108112,0.01958740376858479,0.019587913919222065,0.019587913919222065,0.0191770726059991,0.020207236792880202,0.016903671316066207,0.019176052304724536,0.020413167600128963,0.020413167600128963,0.01979486502774539,0.019794354877108112,0.02000079583499416,0.020000285684356876,0.02020672664224292,0.020413167600128963,0.019794354877108112,0.020207236792880202,0.019587913919222065,0.020207236792880202
S5_D5 hbo,0.016322496151745372,0.016544908717745006,0.01782041892182664,0.01953092672592151,0.01993644172997666,0.016950423721800157,0.019288859095949816,0.019308514159921877,0.020129371700018207,0.019105756657894303,0.01867075905788106,0.01993644172997666,0.019298686627935845,0.01825541652183988,0.020786781866031084,0.014873711041594254,0.019733684227949085,0.02056436930003145,0.01994626926196269,0.019723856695963056,0.019308514159921877,0.015714223645662644,0.01931834169190791,0.01931834169190791,0.01993644172997666,0.018052659019812303,0.019105756657894303,0.02057419683201748,0.01994626926196269,0.020149026763990267,0.021211951934058296,0.020149026763990267,0.019723856695963056,0.019926614197990633,0.01951127166194945,0.019298686627935845,0.01826524405382591,0.01993644172997666,0.016950423721800157,0.01931834169190791,0.02056436930003145,0.020149026763990267,0.01953092672592151,0.019733684227949085,0.01994626926196269,0.02013919923200424,0.02013919923200424,0.01908610159392224,0.020149026763990267,0.019521099193935482,0.019926614197990633,0.01867075905788106
S5_D7 hbo,0.0184822695035461,0.01902836879432624,0.017453900709219858,0.01878723404255319,0.01924113475177305,0.01924113475177305,0.01924113475177305,0.019574468085106385,0.019879432624113475,0.018574468085106384,0.01878723404255319,0.01978723404255319,0.019120567375886525,0.019574468085106385,0.019574468085106385,0.019666666666666666,0.01978723404255319,0.01978723404255319,0.019361702127659575,0.019574468085106385,0.01793617021276596,0.020425531914893616,0.018723404255319147,0.019361702127659575,0.019361702127659575,0.019361702127659575,0.01678723404255319,0.01878723404255319,0.018120567375886524,0.018907801418439715,0.018815602836879435,0.01924113475177305,0.019574468085106385,0.01978723404255319,0.019361702127659575,0.019574468085106385,0.01851063829787234,0.019574468085106385,0.019574468085106385,0.019361702127659575,0.019666666666666666,0.019666666666666666,0.01902836879432624,0.019120567375886525,0.01954609929078014,0.01978723404255319,0.01978723404255319,0.019879432624113475,0.01945390070921986,0.01945390070921986,0.019361702127659575,0.019574468085106385
S6_D4 hbo,0.013674935838280907,0.014030807724401902,0.01900676522680994,0.02114029229718522,0.02149502801907241,0.014208175585345501,0.01812276633267646,0.021671259715782203,0.02078498849318112,0.020428548524943226,0.020427980442826323,0.021849763740959604,0.020961220189890915,0.01670098303454318,0.017055718756430374,0.01278639228721222,0.02167239588001601,0.021850899905193406,0.01918981390892255,0.01901130988374515,0.019896444942112432,0.013674935838280907,0.018301838439970762,0.021139724215068316,0.021317660158128814,0.02060478022165302,0.019360932866580235,0.02167239588001601,0.02060591638588682,0.021672963962132908,0.017589526585611866,0.021318228240245714,0.021671827797899106,0.021671827797899106,0.020607052550120623,0.02025174874611653,0.017412726806785173,0.019011877965862053,0.014208175585345501,0.01883394202280155,0.022028267766137005,0.020254021074584135,0.02149502801907241,0.019011877965862053,0.01918981390892255,0.019011877965862053,0.019011877965862053,0.018477502054563655,0.019367181769866147,0.01883394202280155,0.01847920630091436,0.017944830389615963
S6_D5 hbo,0.013799876401449935,0.014139026163310985,0.01917427771718113,0.021069572781720905,0.021250675114306818,0.01431551751523474,0.018440646425513185,0.021259897075631126,0.02090230339112146,0.019866410182889694,0.02021478190607505,0.021780149170078082,0.02056315362926041,0.016536129399649102,0.017060992474758216,0.012754761231893862,0.021431777446892727,0.021770927208753777,0.019128167910559594,0.019137389871883903,0.020205559944750744,0.013446893697602423,0.01843142446418888,0.021078794743045214,0.021250675114306818,0.020219392886737207,0.019178888697843288,0.021599046837492177,0.020386662277336653,0.021422555485568418,0.01792500531172838,0.021422555485568418,0.021431777446892727,0.021431777446892727,0.020730423019859858,0.0203820512966745,0.017567411627218713,0.01930465926248335,0.01431551751523474,0.018784407168036393,0.022119298931939133,0.020535487745287486,0.021250675114306818,0.019132778891221745,0.0193000482818212,0.019132778891221745,0.019132778891221745,0.01861713777743694,0.019481150614407104,0.019132778891221745,0.018784407168036393,0.018268766054251585
S6_D6 hbo,0.014938636388469241,0.015246662108221476,0.018138222102861756,0.01965189715089508,0.019897023803019963,0.015455343243446851,0.019588998083267726,0.02017859597204435,0.020559512725595593,0.01844624782261399,0.018827164576165234,0.020523067208696087,0.01920808132971648,0.017585069730984643,0.018002432001435392,0.013795886127815507,0.020142150455144843,0.02065885731012245,0.020486621691796582,0.020559512725595593,0.01920808132971648,0.014521274118018491,0.019933469319919468,0.020350831590370218,0.020523067208696087,0.019280972363515496,0.017585069730984643,0.020105704938245338,0.018827164576165234,0.020069259421345832,0.018900055609964245,0.020486621691796582,0.020142150455144843,0.020142150455144843,0.0197612337015936,0.019797679218493104,0.018827164576165234,0.020486621691796582,0.015455343243446851,0.020350831590370218,0.021039774063673695,0.02065885731012245,0.020105704938245338,0.020314386073470712,0.020450176174897076,0.020314386073470712,0.020314386073470712,0.019797679218493104,0.020695302827021957,0.020314386073470712,0.019933469319919468,0.019416762464941856
S6_D8 hbo,0.014998922360438396,0.01514032614615705,0.0180789327290785,0.019269287563748204,0.019685780691611594,0.015348572710088746,0.019369551731067768,0.02031052038340668,0.02072701351127007,0.018569986864447507,0.018778233428379202,0.02066017073305703,0.019161305167136072,0.017870686165146806,0.01811235411818502,0.01402453231899296,0.020451924169125335,0.02062674934395051,0.02062674934395051,0.02069359212216355,0.018986479992310897,0.014965500971331876,0.020277098994300163,0.02048534555823186,0.02048534555823186,0.019402973120174288,0.01734621064067128,0.01989402725554329,0.018603408253554027,0.019860605866436773,0.018670251031767067,0.020451924169125335,0.020277098994300163,0.020102273819474985,0.01989402725554329,0.019927448644649813,0.018953058603204377,0.020451924169125335,0.015523397884913921,0.02048534555823186,0.02066017073305703,0.020451924169125335,0.020068852430368468,0.020277098994300163,0.020277098994300163,0.020451924169125335,0.020451924169125335,0.019786044858931158,0.02048534555823186,0.020102273819474985,0.020068852430368468,0.019369551731067768
S7_D5 hbo,0.013729396950306763,0.01335667984259152,0.020377168854023887,0.020929451622801503,0.02148626298677595,0.013543038396449141,0.01814539480292926,0.021672621540633576,0.020929451622801503,0.0200112446391039,0.020747621664140715,0.021672621540633576,0.02019760319296152,0.01629992364514038,0.01740901777789244,0.012243057114642623,0.02093398021799834,0.021672621540633576,0.01906586608422528,0.018884036125564496,0.021854451499294363,0.012797604181018654,0.018881771827966076,0.020561263110283095,0.022043074350750404,0.0200112446391039,0.019456697572727867,0.02222264001181277,0.020747621664140715,0.02148626298677595,0.017963564844268472,0.02129990443291833,0.02148852728437437,0.02185671579689278,0.021115810176659124,0.0207453573665423,0.01795903624907164,0.018881771827966076,0.013543038396449141,0.019063601786626867,0.021672621540633576,0.020181753109772597,0.021302168730516748,0.019063601786626867,0.019061337489028447,0.019249960340484488,0.01906586608422528,0.01795903624907164,0.019434054596743692,0.01869541327410846,0.01943631889434211,0.017590847736553228
S7_D7 hbo,0.01869675392723816,0.019212143883859827,0.016665684483469858,0.018808979033378,0.019115163969079165,0.01942134890478033,0.01942134890478033,0.019115163969079165,0.020048963967541834,0.0185997740124575,0.01789042422627451,0.019936738861401994,0.019115163969079165,0.01951832881956099,0.01951832881956099,0.01850279409767684,0.019936738861401994,0.019936738861401994,0.01951832881956099,0.019727533840481492,0.017262809163513006,0.019839758946621332,0.018890713756799484,0.01951832881956099,0.019212143883859827,0.01951832881956099,0.01697186941917102,0.019018184054298504,0.018196609161975675,0.019115163969079165,0.019002938862939325,0.01942134890478033,0.019727533840481492,0.019324368989999667,0.019212143883859827,0.01942134890478033,0.018681508735878982,0.019727533840481492,0.019727533840481492,0.019212143883859827,0.019839758946621332,0.019839758946621332,0.019212143883859827,0.019324368989999667,0.019951984052761173,0.019936738861401994,0.019936738861401994,0.020048963967541834,0.01963055392570083,0.01963055392570083,0.019212143883859827,0.019727533840481492
S7_D8 hbo,0.015010351966873704,0.015135830353221658,0.018194366020452976,0.019355041094171528,0.01979421544638936,0.015355417529330572,0.019496204278812976,0.02023338979860719,0.020452976974716104,0.01849237718802936,0.018884497145366712,0.020578455361064056,0.019104084321475624,0.017802246063115628,0.018068887634105024,0.01378693769998118,0.020186335403726708,0.02075098814229249,0.02075098814229249,0.02062550975594454,0.019104084321475624,0.014524123219775392,0.02062550975594454,0.020405922579835624,0.02062550975594454,0.01932367149758454,0.017284647719430328,0.020013802622498272,0.018539431582909844,0.019966748227617792,0.018633540372670808,0.020578455361064056,0.020405922579835624,0.02023338979860719,0.020013802622498272,0.020060857017378756,0.019057029926595144,0.020578455361064056,0.015527950310559006,0.020405922579835624,0.020578455361064056,0.02035886818495514,0.020186335403726708,0.020186335403726708,0.019966748227617792,0.020578455361064056,0.020578455361064056,0.019496204278812976,0.020405922579835624,0.020013802622498272,0.020186335403726708,0.019496204278812976
S8_D6 hbo,0.013818012583374187,0.01414982490429016,0.018783881179191532,0.020718108979340878,0.020920435151502697,0.014337583071770446,0.01849414697894052,0.021483709653943552,0.02109362531430145,0.019852158165347113,0.0200399163328274,0.021642331812060774,0.020574054825905193,0.016718541336908394,0.016747677346271455,0.012908357755335824,0.021281383481781734,0.02144000563989896,0.019374665797615816,0.019576991969777635,0.019476641830386544,0.013803444578692654,0.019201475634817063,0.021642331812060774,0.02109362531430145,0.020776380998067008,0.018639827025755843,0.021108193318982983,0.019866726170028645,0.02109362531430145,0.017455006002148,0.0212668154771002,0.021642331812060774,0.021295951486463266,0.020905867146821164,0.02073267698402241,0.017945440481181196,0.01954785596041457,0.014510773234569199,0.019216043639498595,0.02162776380737924,0.02050121480249753,0.0212668154771002,0.019028285472018312,0.019201475634817063,0.019201475634817063,0.019374665797615816,0.018869663313901087,0.019216043639498595,0.019201475634817063,0.018840527304538026,0.01849414697894052
S8_D8 hbo,0.01377900433721533,0.013768066461818594,0.019405624470493026,0.020612521022217164,0.021324051945424426,0.013951418130318778,0.018261762957904985,0.02152927936471808,0.02115163815232098,0.019578038263596474,0.020278631311407003,0.021874106950924975,0.02011715539370029,0.01633239760757685,0.01704392853078411,0.012711707952404436,0.021345927696217896,0.021863169075528245,0.019307183591922412,0.01932905934271588,0.020440107229113713,0.013412301000214965,0.019134769798818965,0.021345927696217896,0.021690755282424794,0.020656272523804108,0.018715969298079234,0.02150740361392461,0.019933803725200108,0.021324051945424426,0.017572107785491193,0.02150740361392461,0.021518341489321347,0.021518341489321347,0.02097922435921753,0.020623458897613897,0.01772264582780117,0.019134769798818965,0.013951418130318778,0.019318121467319146,0.022046520744028426,0.02040729360292351,0.021334989820821163,0.019134769798818965,0.01912383192342223,0.019307183591922412,0.019134769798818965,0.01844511462640517,0.019662949053526044,0.018962356005715515,0.01895141813031878,0.01791693537169809
S8_D15 hbo,0.013750797629592932,0.014118986142111344,0.018707274651129605,0.020728474770673078,0.021276920840142915,0.014301801498601288,0.0187200636488222,0.021825366909612752,0.020729753670442337,0.020174913102126206,0.020540543815106095,0.021827924709151268,0.021092826583883707,0.017067052041797134,0.0163281172172218,0.013016978404094633,0.02146101509640212,0.021646388252430582,0.01908697326157135,0.01908569436180209,0.019443651676166424,0.013934891885852138,0.0187200636488222,0.021646388252430582,0.021095384383422226,0.021826645809382008,0.01888497440854251,0.021642551553122804,0.020172355302587687,0.02127819973991217,0.016696305729740207,0.021096663283191486,0.021827924709151268,0.021825366909612752,0.020729753670442337,0.020546938313952393,0.018171617579352366,0.01908697326157135,0.014485895754860492,0.018901600105542885,0.021645109352661323,0.01999977114425182,0.021462293996171375,0.01871878474905294,0.01871878474905294,0.018902879005312144,0.01908697326157135,0.01908569436180209,0.018901600105542885,0.018902879005312144,0.01835315403607305,0.0187200636488222
S9_D2 hbo,0.012995829430316928,0.013848743701731041,0.01944321530569909,0.023039661336821407,0.021960092486984807,0.013795039659455222,0.01764816749263745,0.021160882257846514,0.019830982010949037,0.022478944095424794,0.02191822685402818,0.020922389270104834,0.022079338980855644,0.01696820375737,0.018101476649482418,0.012262161652773652,0.021095339806251494,0.0213756984269498,0.018381835270180724,0.017928526113335758,0.020057636589371524,0.013115075924187768,0.01740967450489577,0.0200039325470957,0.020403537661664847,0.01973541233571659,0.025037686909667137,0.023785167523683877,0.024703624246693007,0.022240451107683114,0.019115503047723997,0.02063019224008733,0.02086868522782901,0.022079338980855644,0.019777277968673217,0.01937767285410407,0.01633010565505917,0.018781440384749874,0.013795039659455222,0.017755575577189094,0.021775303541518947,0.019992094137776507,0.020749438733958174,0.018554785806327388,0.019181045499319017,0.018501081764051568,0.018501081764051568,0.018047772607206598,0.018554785806327388,0.018328131227904904,0.017928526113335758,0.01764816749263745
S9_D9 hbo,0.013160517190668587,0.013514624839393799,0.019288224275917587,0.02207077508939767,0.022058197495317268,0.013685389866716203,0.01811173547578136,0.021874854873914454,0.02034425842505302,0.02100216334618183,0.021691512252511647,0.021545902413350054,0.021520747225189242,0.01600595597455069,0.016878647502283316,0.012110771838573352,0.02119179476462484,0.021558480007430457,0.018819950773231786,0.01845955432746637,0.020521312249415627,0.012812698338983575,0.01795354804253936,0.020685788479697827,0.020862842304060436,0.020483579467174415,0.021172928373504235,0.023455761699097508,0.022399727549962074,0.022241540116720075,0.01776391662409635,0.02103989612842304,0.021368848588987445,0.022393438752921872,0.020337969628012816,0.019990150776327806,0.01707456771776653,0.01899071580055419,0.013685389866716203,0.018465843124506574,0.02207706388643787,0.02019235978885122,0.02103360733138284,0.01899071580055419,0.019174058421956998,0.01881366197619158,0.01881366197619158,0.018282500503103764,0.019161480827876595,0.01881366197619158,0.01829507809718417,0.017757627827056147
S9_D11 hbo,0.01328536617492097,0.014057560590094838,0.01931748331577099,0.022661463821566565,0.022031414646996837,0.014028472953986652,0.017834562697576398,0.021288307867931157,0.01994753249034071,0.022202647523709165,0.021743831225851773,0.02100401738672287,0.022002327010888653,0.0168911354056902,0.01766332982086407,0.01231285124692659,0.021175250263435197,0.021404658412363893,0.018464611872146118,0.018063970846505094,0.02014785300316122,0.013085045662100458,0.01755027221636811,0.020118765367053038,0.020490318756585878,0.019973327186512117,0.023346395328415877,0.023717948717948717,0.024089502107481557,0.022260822795925537,0.018493699508254302,0.02069063926940639,0.020974929750614685,0.022173559887600985,0.019918444854232525,0.019546891464699685,0.016577757288373726,0.018836165261678958,0.014028472953986652,0.017892737969792766,0.021776211801896733,0.02003479539866526,0.020832784510010537,0.018635844748858446,0.01903648577449947,0.018606757112750262,0.018606757112750262,0.018206116087109238,0.018635844748858446,0.018435524236037934,0.018063970846505094,0.017834562697576398
S10_D9 hbo,0.013449672164815728,0.013803654465700685,0.019248569265336524,0.02205762174655382,0.02204621878362265,0.013976844628499439,0.018224632239118906,0.021865426645536444,0.020310516167991392,0.020991873856255228,0.021165064019053985,0.021526648295226387,0.021515245332295214,0.016289132547182825,0.016812504023222808,0.012222137074649558,0.02134965714478391,0.02170744043331259,0.01893259684088882,0.01857861454000386,0.020483706330790146,0.012926300688775745,0.018059044051607603,0.0206568964935889,0.02100707780683013,0.020464701392571522,0.020283909254485318,0.022750382397748833,0.021519046319938936,0.02222701092170885,0.01752046862499272,0.02118406895727261,0.021522847307582665,0.022215607958777677,0.02047990534314642,0.02012972402990519,0.01717788928703894,0.01910578700368757,0.013976844628499439,0.01840542437720511,0.02205762174655382,0.020148728968123815,0.021180267969628883,0.01893259684088882,0.01911338897897502,0.01892879585324509,0.01892879585324509,0.018224632239118906,0.01910578700368757,0.01875560569044634,0.01840542437720511,0.01804764108867643
S10_D10 hbo,0.01793764048839989,0.018349416832907025,0.017728820162609585,0.01978872176463629,0.019583216047191862,0.016493236159215427,0.01917143970268473,0.019377455359874677,0.019789741644127327,0.018964659135876506,0.018552882791369373,0.01978948667425457,0.019377200390001917,0.017934580849926773,0.020201263018761705,0.014225789080762219,0.019583216047191862,0.02020151798863446,0.019995502331444516,0.019789741644127327,0.019377200390001917,0.015050106679394763,0.019583471017064622,0.019377200390001917,0.019995757301317276,0.01814085147698948,0.019376690450256397,0.02040727867595165,0.019994992391698996,0.01999524736157176,0.023087776948275792,0.019995502331444516,0.019583471017064622,0.019583471017064622,0.019377455359874677,0.01917143970268473,0.018346867134179427,0.02020151798863446,0.016493236159215427,0.019377200390001917,0.020407533645824406,0.01999524736157176,0.019583216047191862,0.01978923170438181,0.019994992391698996,0.01978948667425457,0.01978948667425457,0.01917118473281197,0.019995502331444516,0.019583216047191862,0.019583471017064622,0.018965169075622026
S10_D12 hbo,0.013840311589563387,0.013998761682127029,0.0193846999498717,0.020758947404991984,0.020952946402426013,0.014180911044604259,0.01843840423261516,0.021499394489857708,0.021123246129946448,0.019566849312348932,0.020089598129867034,0.02166969421737814,0.02027174749234427,0.01635925859749954,0.016723557322454004,0.01261266459204995,0.020976645672339603,0.021475695219944115,0.019301752505174134,0.01915515204756729,0.02023619858747388,0.01330571313708849,0.0185968543251788,0.021146945399860038,0.021305395492423676,0.020113297399780627,0.018715350674746754,0.021475695219944115,0.019919298402346602,0.021293545857466886,0.017586905595012976,0.02164599494746455,0.021317245127380473,0.02148754485490091,0.020952946402426013,0.020782646674905578,0.01790380578014026,0.019301752505174134,0.014180911044604259,0.019301752505174134,0.02182814430994178,0.02090554786259883,0.021305395492423676,0.019642351960215007,0.01963050232525821,0.01947205223269457,0.01947205223269457,0.01862055359509239,0.019654201595171804,0.019301752505174134,0.019119603142696902,0.018097804777574285
S11_D9 hbo,0.013635793076893065,0.013799057898370406,0.019163049396725883,0.02071173284616807,0.02141525580417042,0.013976740911874314,0.01823858884913991,0.021948304844682145,0.020882206763658692,0.020037046272218858,0.020555677120704018,0.021933886652655575,0.0205628862167173,0.01651222238619382,0.016697114495711013,0.01276179620140009,0.02141525580417042,0.021748994543138382,0.019439115367587564,0.019283059642123512,0.01984494506668838,0.013450900967375872,0.0187428015055985,0.021408046708157137,0.021408046708157137,0.020911043147711833,0.01884372884978449,0.02159293881767433,0.020044255368232143,0.021408046708157137,0.01721574534419617,0.02140083761214385,0.021763412735164953,0.021770621831178238,0.020882206763658692,0.02053404983266416,0.017883222822132096,0.019268641450096942,0.014147214829364938,0.01909816753260632,0.021756203639151667,0.020334739531120395,0.021408046708157137,0.01909816753260632,0.018920484519102408,0.019268641450096942,0.019268641450096942,0.018416271862643822,0.019275850546110227,0.018927693615115693,0.018920484519102408,0.01806811493164929
S11_D11 hbo,0.013420287652233388,0.013422425094522447,0.019293504075389965,0.02118775293067087,0.02222156251781202,0.013593657971234775,0.017927915946269447,0.022390657952235292,0.020849562061824332,0.020318763893374878,0.021525943799517416,0.02187909676438736,0.02083459996580092,0.016027254764121368,0.016716461155548798,0.012559848384093629,0.0213589858073832,0.021536631010962703,0.018794767541276385,0.01879049265669827,0.020676191742822946,0.013251192217810119,0.018278931468850342,0.020674054300533887,0.021538768453251762,0.02066550453137765,0.01962314517508027,0.02256402827123668,0.021005832842513252,0.021876959322098304,0.0172344346702639,0.021194165257538047,0.021705726445385973,0.022735261147949007,0.020849562061824332,0.020504958866110617,0.017414217316132463,0.01879263009898733,0.013593657971234775,0.018968137860277772,0.02187909676438736,0.020166767997264072,0.02119202781524899,0.018966000417988717,0.018968137860277772,0.019139370736990104,0.018966000417988717,0.01809914882298178,0.01948397393270382,0.01879263009898733,0.018968137860277772,0.017581175308266674
S11_D12 hbo,0.013915327093805536,0.013903041268338474,0.01965656855390318,0.02035284890741402,0.021061415086391918,0.01408632572581648,0.018361291526090076,0.021769981265369817,0.021391126524946742,0.0194978557473593,0.020194136100870137,0.021769981265369817,0.020035423294326254,0.016443449097568508,0.01681001801252452,0.012669193367860682,0.02107370091185898,0.02141569817588087,0.019399569143622807,0.01924085633707892,0.020169564449936013,0.013365473721371519,0.018862001596655846,0.02107370091185898,0.02141569817588087,0.020206421926337197,0.018300865323282692,0.021244699543869927,0.01951014157282636,0.021061415086391918,0.017335299734024416,0.021928694071913703,0.021598982633358875,0.021598982633358875,0.021403412350413806,0.021232413718402864,0.017994722611134065,0.01922857051161186,0.01408632572581648,0.019387283318155743,0.02141569817588087,0.020828987327045665,0.02141569817588087,0.019558281950166685,0.01903300022866679,0.01974156640764469,0.01957056777563375,0.018361291526090076,0.01957056777563375,0.01904528605413385,0.019387283318155743,0.018019294262068192
S11_D13 hbo,0.0140000324134908,0.013986041434063996,0.019400740395034352,0.019913911794281702,0.020626122285465107,0.014171089546573248,0.018447517873634488,0.021694438022240213,0.02149539893030416,0.019229683261951902,0.019756845640626058,0.021694438022240213,0.01977083662005286,0.01669497360452958,0.01689401269646564,0.013102773809798142,0.02099621851048361,0.02133833277664851,0.019487851651555987,0.019686890743492044,0.019913911794281702,0.013800993321554744,0.019117755426537483,0.02116727564356606,0.02133833277664851,0.02029799899872701,0.01786122619729231,0.02081117039797436,0.01907261710829626,0.020626122285465107,0.01725011794205734,0.02168044704281341,0.02150938990973096,0.02133833277664851,0.02149539893030416,0.02132434179722171,0.018248478781698434,0.019487851651555987,0.014342146679655698,0.019658908784638437,0.021352323756075313,0.0209402545927764,0.02115328466413926,0.019658908784638437,0.019131746405964285,0.019829965917720883,0.019829965917720883,0.01863256598614374,0.01967289976406524,0.019316794518473537,0.019473860672129185,0.018276460740552038
S12_D10 hbo,0.015444931123506218,0.01555329325835434,0.017876900614812535,0.019111183352534342,0.01954748352705441,0.015771443345614373,0.02031029592368264,0.019584079511191718,0.020165337804697214,0.018421562924180724,0.018603117027303454,0.019947187717437177,0.019365929423931685,0.018240008821057994,0.017586984376841683,0.013591368290577818,0.019365929423931685,0.02012874182055991,0.02012874182055991,0.019983783701574484,0.01925756728908356,0.014354180687206043,0.020165337804697214,0.02012874182055991,0.019983783701574484,0.01954748352705441,0.016932534115061577,0.01954748352705441,0.018240008821057994,0.019729037630177144,0.01853135087659264,0.02012874182055991,0.019947187717437177,0.019584079511191718,0.019765633614314448,0.019765633614314448,0.026670392803233377,0.02031029592368264,0.019261844741774933,0.019765633614314448,0.02031029592368264,0.020092145836422604,0.019910591733299874,0.019729037630177144,0.019692441646039838,0.019947187717437177,0.02012874182055991,0.020092145836422604,0.019947187717437177,0.020092145836422604,0.019983783701574484,0.019729037630177144
S12_D12 hbo,0.014969443337318986,0.015455706972629032,0.01818722103971801,0.01970975410507987,0.019773496264511588,0.015487578052344892,0.019632655772552146,0.020214532647009772,0.020591826870076237,0.018500773103352755,0.018878067326419216,0.020559955790360376,0.01925536154948568,0.017637215244976242,0.017873668976083265,0.013837560668119593,0.02018266156729391,0.020528084710644517,0.020528084710644517,0.020591826870076237,0.019082649977810378,0.014560278034536661,0.019773496264511588,0.02018266156729391,0.020387244218685076,0.01911452105752624,0.017809926816651542,0.019978078915902753,0.018705355754743913,0.01994620783618689,0.018769097914175636,0.020528084710644517,0.02018266156729391,0.020009949995618607,0.01980536734422745,0.019837238423943308,0.018878067326419216,0.02070079628231982,0.015487578052344892,0.02018266156729391,0.02090537893371098,0.02070079628231982,0.020150790487578053,0.020355373138969214,0.020323502059253356,0.020355373138969214,0.020355373138969214,0.020009949995618607,0.020559955790360376,0.020355373138969214,0.019978078915902753,0.019632655772552146
S12_D14 hbo,0.018954254677127337,0.01996125528062764,0.016140253470126736,0.018957754978877486,0.01875425467712734,0.019859505129752562,0.019859505129752562,0.018652504526252264,0.019656004828002414,0.018354254677127337,0.017347254073627034,0.019456004828002416,0.01935775497887749,0.018957754978877486,0.019056004828002415,0.017249004224502113,0.019256004828002413,0.01975775497887749,0.01955775497887749,0.019456004828002416,0.017547254073627037,0.018354254677127337,0.018856004828002412,0.01935775497887749,0.019154254677127336,0.018856004828002412,0.017147254073627036,0.018954254677127337,0.018252504526252263,0.019056004828002415,0.019859505129752562,0.01975775497887749,0.019456004828002416,0.018852504526252263,0.018954254677127337,0.019154254677127336,0.022157754978877488,0.02036125528062764,0.022859505129752565,0.01875425467712734,0.020059505129752565,0.019859505129752562,0.01935775497887749,0.019256004828002413,0.01935775497887749,0.019456004828002416,0.01975775497887749,0.02016125528062764,0.019456004828002416,0.019859505129752562,0.018954254677127337,0.02016125528062764
S13_D6 hbo,0.014892222498052766,0.0148507749451878,0.01840891601076644,0.01922451336705471,0.019993044400107237,0.015063631479883415,0.019348856025649612,0.020460205022363436,0.021057327073585312,0.018196059476070822,0.018923142956258382,0.02080302298602473,0.0187931815272927,0.017339014566917582,0.01793613661813946,0.013739425948473978,0.020075939505837172,0.020590166451329116,0.020418757469498467,0.020501652575228402,0.019478817454615292,0.01467936596335715,0.02024734848766782,0.02028879604053279,0.02080302298602473,0.01939030357851458,0.017167605585086936,0.020205900934802852,0.01840891601076644,0.019993044400107237,0.018491811116496372,0.020590166451329116,0.020418757469498467,0.020418757469498467,0.020034491952972203,0.020075939505837172,0.018923142956258382,0.02024734848766782,0.015063631479883415,0.020631614004194082,0.02080302298602473,0.020590166451329116,0.020205900934802852,0.020418757469498467,0.020590166451329116,0.020590166451329116,0.020418757469498467,0.019774569095040846,0.02097443196785538,0.02024734848766782,0.020205900934802852,0.019006038061988317
S13_D11 hbo,0.013789849784561551,0.014136398753178271,0.019190841322316465,0.021453237126390395,0.021281696908211196,0.014137554930597714,0.01831001668303165,0.021284009263050078,0.020932835584755595,0.020062416542245748,0.02041127786570135,0.021806723159523762,0.020760139189156954,0.016394169847574438,0.01691803992146756,0.012569413241176663,0.02145786183606816,0.021804410804684878,0.01900542697510397,0.019007739329942853,0.020408965510862468,0.01344098846110595,0.018307704328192766,0.020932835584755595,0.021281696908211196,0.020238581470102712,0.01954085882319151,0.021804410804684878,0.020585130438719432,0.021629402054247356,0.017788458963977405,0.021280540730791754,0.02145786183606816,0.02145786183606816,0.02058397426129999,0.02023511293784439,0.01743728528568292,0.019354288298559574,0.014137554930597714,0.01865772182906781,0.022153272128140482,0.020404340801184705,0.021281696908211196,0.01918043572554149,0.019528140871577657,0.01900658315252341,0.01900658315252341,0.018833886756924774,0.019355444475979013,0.01900658315252341,0.01865772182906781,0.01831001668303165
S13_D13 hbo,0.014163301497382399,0.014673158737355207,0.019188412255923375,0.020358780994765825,0.020397377303620692,0.01469245689178264,0.01894126722488937,0.020775878439124103,0.021324331987951778,0.018999161688171673,0.019528317082571914,0.021135081420200073,0.019717567650323616,0.016843943801715836,0.017222444937219243,0.013104990708581914,0.02043597361247556,0.02111578326577264,0.01962107687818645,0.019300470205965342,0.020038174322544722,0.013993349084058129,0.0187134203482828,0.02041667545804813,0.020756580284696666,0.019377662823675076,0.018319352034874597,0.020926532698020937,0.019358364669247646,0.020737282130269232,0.017902254590516323,0.021285735679096907,0.020775878439124103,0.020945830852448367,0.020586627871372398,0.02060592602579983,0.01801431254055829,0.01998027985926242,0.01469245689178264,0.01962107687818645,0.021474986246848612,0.021266437524669474,0.020567329716944964,0.020150232272586686,0.020320184685910958,0.01998027985926242,0.01998027985926242,0.019489720773717044,0.020169530427014123,0.01981032744593815,0.019431826310434743,0.0187713148115651
S13_D15 hbo,0.013565233438369535,0.013911974076372308,0.019381564657346535,0.02113256070043881,0.0213232238725186,0.014093990821912896,0.01842824879694757,0.021695903790138985,0.02077717363589683,0.020092338786430484,0.020621096169973853,0.02186062768260117,0.02080311291551444,0.01632186568931332,0.01651252886139311,0.012507718671282806,0.021331870299057806,0.021669964510521375,0.01930374681849371,0.01896565260703014,0.019893029187811495,0.013209846373827556,0.018592972689409758,0.021505240618059192,0.021141207126978014,0.020820405768592846,0.019052116872422163,0.02167861093706058,0.020274355531971076,0.021669964510521375,0.01720601013739866,0.021487947764980787,0.021687257363599784,0.021513887044598397,0.020785820062436035,0.020430432997894057,0.017535457922323028,0.01930374681849371,0.014093990821912896,0.019139022926031528,0.022025351575063353,0.020569217610738634,0.021496594191519988,0.01930374681849371,0.019295100391954506,0.019130376499492324,0.019130376499492324,0.018610265542488163,0.019312393245032915,0.019130376499492324,0.018592972689409758,0.018081508158944798
S14_D12 hbo,0.014618610385342873,0.014964511457636196,0.01873737173898892,0.019743023441995057,0.019807126469742732,0.015169513507656695,0.019493276911323246,0.02042213261980423,0.020800085205971396,0.01853236968896842,0.018910322275135585,0.020595083155950895,0.019115324325156086,0.017321715935941787,0.01773172003598279,0.013516804140715221,0.019871229497490407,0.020563031642077057,0.020390081105930394,0.020076231547510908,0.019602124419722235,0.01444565984919621,0.019429173883575568,0.02004418003363707,0.020390081105930394,0.01897442530288326,0.01766761700823511,0.020530980128203216,0.018910322275135585,0.02015302754203606,0.01842352218056944,0.02073598217822372,0.020217130569783734,0.020390081105930394,0.020012128519763233,0.02004418003363707,0.018705320225115084,0.020390081105930394,0.015169513507656695,0.020390081105930394,0.020940984228244218,0.02090893271437038,0.020185079055909896,0.02073598217822372,0.02090893271437038,0.020563031642077057,0.020563031642077057,0.019903281011364245,0.020768033692097558,0.020390081105930394,0.019980077005889395,0.019147375839029923
S14_D13 hbo,0.014610049246845582,0.015337258818900707,0.018622610307557377,0.020163370030687175,0.020047656585823248,0.01516279964234802,0.01952427905616519,0.01990257027511494,0.020484693536461755,0.018767696618265682,0.019145987837215436,0.020455320670617377,0.019349819879612498,0.017546482382396877,0.01792477360134663,0.01370838049823777,0.020106402317512005,0.020600406981325682,0.020222115762375932,0.01990257027511494,0.019465533324476432,0.01463942211268996,0.019261701282079366,0.01987319740927056,0.020047656585823248,0.019000901526507127,0.018244319088607623,0.020774866157878373,0.019320447013768123,0.02039657493892862,0.018622610307557377,0.020425947804772998,0.020077029451667623,0.020077029451667623,0.019698738232717873,0.01972811109856225,0.018360032533471557,0.020600406981325682,0.01516279964234802,0.01987319740927056,0.02097869820027544,0.020804239023722748,0.020047656585823248,0.020629779847170064,0.0211825302426725,0.02025148862822031,0.02025148862822031,0.020310234359909068,0.020629779847170064,0.020455320670617377,0.019669365366873498,0.019553651922009564
S14_D14 hbo,0.014917220646144726,0.015055652912677719,0.018419891630823616,0.019407220331991583,0.01997925223356057,0.015256779219998715,0.01950126139317359,0.02021172556127557,0.02078375746284456,0.01838854461042961,0.0189292294916046,0.020752410442450558,0.018960576511998603,0.017539648175794637,0.017941900790436633,0.01380450386340075,0.020041946274348577,0.020721063422056554,0.020350157827808562,0.020243072581669574,0.019469914372779586,0.01451496803150273,0.01960834663931258,0.020010599253954573,0.02055128413512956,0.018960576511998603,0.017369868888867643,0.020350157827808562,0.018589670917750607,0.020149031520487568,0.018652364958538614,0.020721063422056554,0.020381504848202565,0.020381504848202565,0.020010599253954573,0.020041946274348577,0.018897882471210596,0.020381504848202565,0.015256779219998715,0.020180378540881568,0.020922189729377552,0.020721063422056554,0.020149031520487568,0.02055128413512956,0.020519937114735556,0.02055128413512956,0.02055128413512956,0.019702387700494588,0.020922189729377552,0.020381504848202565,0.020180378540881568,0.019161702819319597
S14_D16 hbo,0.01491543410239227,0.015223472764521375,0.018416779586867722,0.019403704874930296,0.01980595748957229,0.015424599071842371,0.01966764048392655,0.020208210104214287,0.02078018437533965,0.01838537493603009,0.018925944556317825,0.020748779724502016,0.019127070863638823,0.017536766653613256,0.017769297611771886,0.013802890210979175,0.02003848844773092,0.020547653417181018,0.02034652710986002,0.020239614755051916,0.01929679252012219,0.014513181487750274,0.019604831182251294,0.02000708379689329,0.020377931760697653,0.018957349207155454,0.01736704499712989,0.020176805453376655,0.018586501243351088,0.019975679146055657,0.01864931054502635,0.020717375073664387,0.020377931760697653,0.020208210104214287,0.02000708379689329,0.02003848844773092,0.018894539905480193,0.020547653417181018,0.015424599071842371,0.020176805453376655,0.020918501380985385,0.020887096730147756,0.020145400802539026,0.020547653417181018,0.02051624876634339,0.020547653417181018,0.020547653417181018,0.01986876679124755,0.020748779724502016,0.020547653417181018,0.020176805453376655,0.019328197170959818
S15_D13 hbo,0.015179298317079731,0.01573198807389624,0.018109756495848964,0.019750605242046346,0.019600816371611787,0.01574920859814838,0.020170726652680434,0.0198194873390549,0.020590848063314522,0.01864522572841333,0.018846676171604307,0.020389397620123546,0.019785046290550622,0.018092535971596824,0.017574287263284596,0.014039477754942438,0.020003717257993735,0.020372177095871406,0.020170726652680434,0.02018794717693257,0.018846676171604307,0.014995068398140896,0.019382145404168674,0.020170726652680434,0.019802266814802762,0.01941658645267295,0.017724076133719152,0.019986496733741598,0.01866244625266547,0.019969276209489458,0.01831120693903994,0.020372177095871406,0.02018794717693257,0.0198194873390549,0.019802266814802762,0.020003717257993735,0.018996465042038863,0.020740636933749078,0.01574920859814838,0.019802266814802762,0.020757857458001218,0.020556407014810242,0.019969276209489458,0.020372177095871406,0.020757857458001218,0.02018794717693257,0.020372177095871406,0.020757857458001218,0.020389397620123546,0.020556407014810242,0.019600816371611787,0.020170726652680434
S15_D15 hbo,0.014964851464988903,0.014933673365504042,0.01836390059658339,0.019544214362796,0.019952711094822145,0.015137921731517115,0.019464678394722375,0.020219315659804938,0.020800882658359294,0.01850579276362674,0.01905618166269623,0.02056545619286136,0.019087359762181094,0.017467371164457474,0.01804893816301183,0.013659825300836845,0.020015067293791867,0.02070734835990471,0.020534278093376497,0.020423564025818013,0.01960657056176572,0.014587532832447622,0.019779640828293935,0.020188137560320077,0.02056545619286136,0.019118537861665955,0.017640441430985684,0.02050309999389164,0.018883111396168023,0.020298851627878565,0.01877239732860953,0.020534278093376497,0.020188137560320077,0.020188137560320077,0.019810818927778796,0.019841997027263657,0.018883111396168023,0.02036120782684829,0.015137921731517115,0.020188137560320077,0.020911596725917782,0.020534278093376497,0.02015695946083522,0.020534278093376497,0.02070734835990471,0.02036120782684829,0.02036120782684829,0.019873175126748518,0.020738526459389568,0.020188137560320077,0.019983889194307006,0.019118537861665955
S15_D16 hbo,0.014843995802864073,0.015367921754662884,0.018306475415435258,0.019673251220811195,0.019733971352986324,0.015398281820750447,0.019764331419073883,0.020174335519114885,0.02072862153700126,0.01862539931721357,0.019005043351167008,0.020523619486980758,0.019384687385120447,0.017577547413615946,0.01763826754579107,0.013735423767091321,0.019969333469094384,0.020493259420893195,0.020493259420893195,0.020348977503047823,0.019005043351167008,0.014669353818931134,0.019703611286898758,0.020318617436960257,0.020143975453027322,0.019240405467275068,0.017577547413615946,0.02011361538693976,0.018655759383301135,0.020083255320852197,0.01833683548152282,0.020493259420893195,0.020318617436960257,0.019969333469094384,0.01993897340300682,0.019969333469094384,0.018800041301146507,0.02084254338875907,0.015398281820750447,0.020143975453027322,0.02087290345484663,0.020667901404826133,0.020288257370872698,0.020493259420893195,0.020667901404826133,0.020318617436960257,0.020493259420893195,0.020348977503047823,0.020523619486980758,0.020493259420893195,0.019733971352986324,0.019589689435140945
S16_D14 hbo,0.015149744010520577,0.01511623495956434,0.01868231452705171,0.019505850385248713,0.020258504414483777,0.015321152992351227,0.019606377538117427,0.020087095432653128,0.02066834048005755,0.018477396494264824,0.019196541472543655,0.020634831429101313,0.019058641541669242,0.017620351585111584,0.018201596632516005,0.013610926901094207,0.019915686450822482,0.020634831429101313,0.020258504414483777,0.020120604483609368,0.019744277468991836,0.014330071879373036,0.020087095432653128,0.019710768418035596,0.020634831429101313,0.01882021445792612,0.017448942603280934,0.020258504414483777,0.01868231452705171,0.020258504414483777,0.018749332628964187,0.020634831429101313,0.020463422447270663,0.020463422447270663,0.020292013465440017,0.020120604483609368,0.01899162343975677,0.020292013465440017,0.015321152992351227,0.020053586381696895,0.020634831429101313,0.020429913396314427,0.020053586381696895,0.020258504414483777,0.020224995363527544,0.020634831429101313,0.020463422447270663,0.019401459505330537,0.02080624041093196,0.020087095432653128,0.020463422447270663,0.019058641541669242
S16_D16 hbo,0.015239977738970236,0.015987641290372105,0.017838377247692338,0.0195021973171621,0.019539043159530985,0.016006064211556544,0.020305129632117294,0.01996814369878524,0.02034197547448617,0.018567617877909767,0.018586040799094206,0.02034197547448617,0.01972595904738145,0.018380701990059298,0.01766988428102631,0.014268552457349018,0.020136636665451266,0.020323552553301732,0.020323552553301732,0.02034197547448617,0.018586040799094206,0.015034638929935328,0.019520620238346543,0.020323552553301732,0.0199497207776008,0.019744381968565893,0.01763303843865743,0.019744381968565893,0.018586040799094206,0.01972595904738145,0.01841754783242818,0.020323552553301732,0.020136636665451266,0.01976280488975033,0.019744381968565893,0.0199497207776008,0.019315281429311635,0.020697384329002668,0.016006064211556544,0.0199497207776008,0.020715807250187106,0.020510468441152202,0.020118213744266825,0.020136636665451266,0.020118213744266825,0.020136636665451266,0.020323552553301732,0.020697384329002668,0.02034197547448617,0.020510468441152202,0.019539043159530985,0.020305129632117294
