,S1_D1 hbo,S1_D3 hbo,S2_D1 hbo,S2_D2 hbo,S2_D4 hbo,S3_D1 hbo,S3_D3 hbo,S3_D4 hbo,S3_D5 hbo,S4_D2 hbo,S4_D4 hbo,S4_D6 hbo,S4_D11 hbo,S5_D3 hbo,S5_D5 hbo,S5_D7 hbo,S6_D4 hbo,S6_D5 hbo,S6_D6 hbo,S6_D8 hbo,S7_D5 hbo,S7_D7 hbo,S7_D8 hbo,S8_D6 hbo,S8_D8 hbo,S8_D15 hbo,S9_D2 hbo,S9_D9 hbo,S9_D11 hbo,S10_D9 hbo,S10_D10 hbo,S10_D12 hbo,S11_D9 hbo,S11_D11 hbo,S11_D12 hbo,S11_D13 hbo,S12_D10 hbo,S12_D12 hbo,S12_D14 hbo,S13_D6 hbo,S13_D11 hbo,S13_D13 hbo,S13_D15 hbo,S14_D12 hbo,S14_D13 hbo,S14_D14 hbo,S14_D16 hbo,S15_D13 hbo,S15_D15 hbo,S15_D16 hbo,S16_D14 hbo,S16_D16 hbo
S1_D1 hbo,0.0,0.0,0.0,0.0,0.0,0.0,0.0,0.0,0.0,0.0,0.0,0.0,0.0,0.0,0.0,0.0,0.0,0.0,0.0,0.0,0.0,0.0,0.0,0.0,0.0,0.0,0.0,0.0,0.0,0.0,0.0,0.0,0.0,0.0,0.0,0.0,0.0,0.0,0.0,0.0,0.0,0.0,0.0,0.0,0.0,0.0,0.0,0.0,0.0,0.0,0.0,0.0
S1_D3 hbo,0.0,0.028346456692913385,0.0,0.028346456692913385,0.0,0.009448818897637795,0.029921259842519685,0.02204724409448819,0.029921259842519685,0.0,0.0,0.0,0.0,0.029921259842519685,0.029921259842519685,0.028346456692913385,0.012598425196850394,0.029921259842519685,0.009448818897637795,0.029921259842519685,0.0,0.0,0.0,0.011023622047244094,0.029921259842519685,0.0,0.0,0.026771653543307086,0.0,0.029921259842519685,0.028346456692913385,0.029921259842519685,0.025196850393700787,0.029921259842519685,0.029921259842519685,0.029921259842519685,0.029921259842519685,0.029921259842519685,0.014173228346456693,0.0,0.029921259842519685,0.029921259842519685,0.023622047244094488,0.029921259842519685,0.029921259842519685,0.029921259842519685,0.028346456692913385,0.029921259842519685,0.025196850393700787,0.029921259842519685,0.029921259842519685,0.02047244094488189
S2_D1 hbo,0.0,0.0,0.0,0.0,0.0,0.0,0.0,0.0,0.0,0.0,0.0,0.0,0.0,0.0,0.0,0.0,0.0,0.0,0.0,0.0,0.0,0.0,0.0,0.0,0.0,0.0,0.0,0.0,0.0,0.0,0.0,0.0,0.0,0.0,0.0,0.0,0.0,0.0,0.0,0.0,0.0,0.0,0.0,0.0,0.0,0.0,0.0,0.0,0.0,0.0,0.0,0.0
S2_D2 hbo,0.0,0.027868852459016394,0.0,0.027868852459016394,0.0,0.009836065573770493,0.029508196721311476,0.022950819672131147,0.029508196721311476,0.0,0.0,0.0,0.0,0.029508196721311476,0.029508196721311476,0.029508196721311476,0.013114754098360656,0.029508196721311476,0.009836065573770493,0.029508196721311476,0.0,0.0,0.0,0.011475409836065573,0.029508196721311476,0.0,0.0,0.027868852459016394,0.0,0.029508196721311476,0.027868852459016394,0.029508196721311476,0.02622950819672131,0.029508196721311476,0.029508196721311476,0.029508196721311476,0.029508196721311476,0.029508196721311476,0.014754098360655738,0.0,0.029508196721311476,0.029508196721311476,0.02459016393442623,0.029508196721311476,0.029508196721311476,0.029508196721311476,0.029508196721311476,0.029508196721311476,0.02622950819672131,0.029508196721311476,0.029508196721311476,0.021311475409836064
S2_D4 hbo,0.0,0.0,0.0,0.0,0.0,0.0,0.0,0.0,0.0,0.0,0.0,0.0,0.0,0.0,0.0,0.0,0.0,0.0,0.0,0.0,0.0,0.0,0.0,0.0,0.0,0.0,0.0,0.0,0.0,0.0,0.0,0.0,0.0,0.0,0.0,0.0,0.0,0.0,0.0,0.0,0.0,0.0,0.0,0.0,0.0,0.0,0.0,0.0,0.0,0.0,0.0,0.0
S3_D1 hbo,0.0,0.02643171806167401,0.0,0.02643171806167401,0.0,0.022026431718061675,0.02643171806167401,0.02643171806167401,0.02643171806167401,0.0,0.0,0.0,0.0,0.02643171806167401,0.02643171806167401,0.02643171806167401,0.02643171806167401,0.02643171806167401,0.02643171806167401,0.02643171806167401,0.0,0.0,0.0,0.02643171806167401,0.02643171806167401,0.0,0.0,0.02643171806167401,0.0,0.02643171806167401,0.02643171806167401,0.02643171806167401,0.02643171806167401,0.02643171806167401,0.02643171806167401,0.02643171806167401,0.02643171806167401,0.02643171806167401,0.02643171806167401,0.0,0.02643171806167401,0.02643171806167401,0.02643171806167401,0.02643171806167401,0.02643171806167401,0.02643171806167401,0.02643171806167401,0.02643171806167401,0.02643171806167401,0.02643171806167401,0.02643171806167401,0.02643171806167401
S3_D3 hbo,0.0,0.02676056338028169,0.0,0.02535211267605634,0.0,0.008450704225352112,0.03380281690140845,0.01971830985915493,0.035211267605633804,0.0,0.0,0.0,0.0,0.0323943661971831,0.0323943661971831,0.02676056338028169,0.011267605633802818,0.03380281690140845,0.008450704225352112,0.0323943661971831,0.0,0.0,0.0,0.009859154929577466,0.030985915492957747,0.0,0.0,0.023943661971830985,0.0,0.028169014084507043,0.02676056338028169,0.0323943661971831,0.022535211267605635,0.02676056338028169,0.03380281690140845,0.0323943661971831,0.035211267605633804,0.0323943661971831,0.01267605633802817,0.0,0.02676056338028169,0.029577464788732393,0.02112676056338028,0.03380281690140845,0.030985915492957747,0.02676056338028169,0.02535211267605634,0.029577464788732393,0.022535211267605635,0.028169014084507043,0.0323943661971831,0.018309859154929577
S3_D4 hbo,0.0,0.028282828282828285,0.0,0.028282828282828285,0.0,0.012121212121212121,0.028282828282828285,0.026262626262626262,0.028282828282828285,0.0,0.0,0.0,0.0,0.028282828282828285,0.028282828282828285,0.028282828282828285,0.01616161616161616,0.028282828282828285,0.012121212121212121,0.028282828282828285,0.0,0.0,0.0,0.014141414141414142,0.028282828282828285,0.0,0.0,0.028282828282828285,0.0,0.028282828282828285,0.028282828282828285,0.028282828282828285,0.028282828282828285,0.028282828282828285,0.028282828282828285,0.028282828282828285,0.028282828282828285,0.028282828282828285,0.01818181818181818,0.0,0.028282828282828285,0.028282828282828285,0.028282828282828285,0.028282828282828285,0.028282828282828285,0.028282828282828285,0.028282828282828285,0.028282828282828285,0.028282828282828285,0.028282828282828285,0.028282828282828285,0.024242424242424242
S3_D5 hbo,0.0,0.02676056338028169,0.0,0.02535211267605634,0.0,0.008450704225352112,0.03380281690140845,0.01971830985915493,0.035211267605633804,0.0,0.0,0.0,0.0,0.0323943661971831,0.0323943661971831,0.02676056338028169,0.011267605633802818,0.03380281690140845,0.008450704225352112,0.0323943661971831,0.0,0.0,0.0,0.009859154929577466,0.030985915492957747,0.0,0.0,0.023943661971830985,0.0,0.028169014084507043,0.02676056338028169,0.0323943661971831,0.022535211267605635,0.02676056338028169,0.03380281690140845,0.0323943661971831,0.035211267605633804,0.0323943661971831,0.01267605633802817,0.0,0.02676056338028169,0.029577464788732393,0.02112676056338028,0.03380281690140845,0.030985915492957747,0.02676056338028169,0.02535211267605634,0.029577464788732393,0.022535211267605635,0.028169014084507043,0.0323943661971831,0.018309859154929577
S4_D2 hbo,0.0,0.0,0.0,0.0,0.0,0.0,0.0,0.0,0.0,0.0,0.0,0.0,0.0,0.0,0.0,0.0,0.0,0.0,0.0,0.0,0.0,0.0,0.0,0.0,0.0,0.0,0.0,0.0,0.0,0.0,0.0,0.0,0.0,0.0,0.0,0.0,0.0,0.0,0.0,0.0,0.0,0.0,0.0,0.0,0.0,0.0,0.0,0.0,0.0,0.0,0.0,0.0
S4_D4 hbo,0.0,0.0,0.0,0.0,0.0,0.0,0.0,0.0,0.0,0.0,0.0,0.0,0.0,0.0,0.0,0.0,0.0,0.0,0.0,0.0,0.0,0.0,0.0,0.0,0.0,0.0,0.0,0.0,0.0,0.0,0.0,0.0,0.0,0.0,0.0,0.0,0.0,0.0,0.0,0.0,0.0,0.0,0.0,0.0,0.0,0.0,0.0,0.0,0.0,0.0,0.0,0.0
S4_D6 hbo,0.0,0.0,0.0,0.0,0.0,0.0,0.0,0.0,0.0,0.0,0.0,0.0,0.0,0.0,0.0,0.0,0.0,0.0,0.0,0.0,0.0,0.0,0.0,0.0,0.0,0.0,0.0,0.0,0.0,0.0,0.0,0.0,0.0,0.0,0.0,0.0,0.0,0.0,0.0,0.0,0.0,0.0,0.0,0.0,0.0,0.0,0.0,0.0,0.0,0.0,0.0,0.0
S4_D11 hbo,0.0,0.0,0.0,0.0,0.0,0.0,0.0,0.0,0.0,0.0,0.0,0.0,0.0,0.0,0.0,0.0,0.0,0.0,0.0,0.0,0.0,0.0,0.0,0.0,0.0,0.0,0.0,0.0,0.0,0.0,0.0,0.0,0.0,0.0,0.0,0.0,0.0,0.0,0.0,0.0,0.0,0.0,0.0,0.0,0.0,0.0,0.0,0.0,0.0,0.0,0.0,0.0
S5_D3 hbo,0.0,0.026836158192090395,0.0,0.025423728813559324,0.0,0.00847457627118644,0.03389830508474576,0.01977401129943503,0.03389830508474576,0.0,0.0,0.0,0.0,0.03248587570621469,0.03248587570621469,0.026836158192090395,0.011299435028248588,0.03389830508474576,0.00847457627118644,0.03248587570621469,0.0,0.0,0.0,0.009887005649717515,0.031073446327683617,0.0,0.0,0.02401129943502825,0.0,0.02824858757062147,0.026836158192090395,0.03248587570621469,0.022598870056497175,0.026836158192090395,0.03389830508474576,0.03248587570621469,0.03389830508474576,0.03248587570621469,0.012711864406779662,0.0,0.026836158192090395,0.029661016949152543,0.0211864406779661,0.03389830508474576,0.031073446327683617,0.026836158192090395,0.025423728813559324,0.029661016949152543,0.022598870056497175,0.02824858757062147,0.03248587570621469,0.018361581920903956
S5_D5 hbo,0.0,0.027338129496402876,0.0,0.025899280575539568,0.0,0.008633093525179856,0.033093525179856115,0.02014388489208633,0.033093525179856115,0.0,0.0,0.0,0.0,0.031654676258992806,0.031654676258992806,0.027338129496402876,0.011510791366906475,0.033093525179856115,0.008633093525179856,0.031654676258992806,0.0,0.0,0.0,0.010071942446043165,0.031654676258992806,0.0,0.0,0.02446043165467626,0.0,0.02877697841726619,0.027338129496402876,0.031654676258992806,0.02302158273381295,0.027338129496402876,0.033093525179856115,0.031654676258992806,0.033093525179856115,0.031654676258992806,0.012949640287769784,0.0,0.027338129496402876,0.030215827338129497,0.02158273381294964,0.033093525179856115,0.030215827338129497,0.027338129496402876,0.025899280575539568,0.030215827338129497,0.02302158273381295,0.02877697841726619,0.033093525179856115,0.01870503597122302
S5_D7 hbo,0.0,0.026016260162601626,0.0,0.026016260162601626,0.0,0.00975609756097561,0.030894308943089432,0.022764227642276424,0.030894308943089432,0.0,0.0,0.0,0.0,0.030894308943089432,0.030894308943089432,0.02926829268292683,0.013008130081300813,0.030894308943089432,0.00975609756097561,0.030894308943089432,0.0,0.0,0.0,0.011382113821138212,0.030894308943089432,0.0,0.0,0.027642276422764227,0.0,0.02926829268292683,0.026016260162601626,0.030894308943089432,0.024390243902439025,0.027642276422764227,0.030894308943089432,0.030894308943089432,0.030894308943089432,0.030894308943089432,0.014634146341463415,0.0,0.027642276422764227,0.02926829268292683,0.024390243902439025,0.030894308943089432,0.02926829268292683,0.027642276422764227,0.027642276422764227,0.02926829268292683,0.024390243902439025,0.02926829268292683,0.030894308943089432,0.02113821138211382
S6_D4 hbo,0.0,0.026936026936026935,0.0,0.026936026936026935,0.0,0.016835016835016835,0.026936026936026935,0.026936026936026935,0.026936026936026935,0.0,0.0,0.0,0.0,0.026936026936026935,0.026936026936026935,0.026936026936026935,0.02356902356902357,0.026936026936026935,0.020202020202020204,0.026936026936026935,0.0,0.0,0.0,0.02356902356902357,0.026936026936026935,0.0,0.0,0.026936026936026935,0.0,0.026936026936026935,0.026936026936026935,0.026936026936026935,0.026936026936026935,0.026936026936026935,0.026936026936026935,0.026936026936026935,0.026936026936026935,0.026936026936026935,0.026936026936026935,0.0,0.026936026936026935,0.026936026936026935,0.026936026936026935,0.026936026936026935,0.026936026936026935,0.026936026936026935,0.026936026936026935,0.026936026936026935,0.026936026936026935,0.026936026936026935,0.026936026936026935,0.026936026936026935
S6_D5 hbo,0.0,0.027259684361549498,0.0,0.02582496413199426,0.0,0.00860832137733142,0.03299856527977044,0.020086083213773313,0.03443328550932568,0.0,0.0,0.0,0.0,0.03156384505021521,0.03156384505021521,0.027259684361549498,0.011477761836441894,0.03299856527977044,0.00860832137733142,0.03156384505021521,0.0,0.0,0.0,0.010043041606886656,0.03156384505021521,0.0,0.0,0.024390243902439025,0.0,0.028694404591104734,0.027259684361549498,0.03156384505021521,0.02295552367288379,0.027259684361549498,0.03299856527977044,0.03156384505021521,0.03443328550932568,0.03156384505021521,0.01291248206599713,0.0,0.027259684361549498,0.03012912482065997,0.021520803443328552,0.03299856527977044,0.03012912482065997,0.027259684361549498,0.02582496413199426,0.03012912482065997,0.02295552367288379,0.028694404591104734,0.03299856527977044,0.018651362984218076
S6_D6 hbo,0.0,0.02666666666666667,0.0,0.02666666666666667,0.0,0.017777777777777778,0.02666666666666667,0.02666666666666667,0.02666666666666667,0.0,0.0,0.0,0.0,0.02666666666666667,0.02666666666666667,0.02666666666666667,0.02666666666666667,0.02666666666666667,0.022222222222222223,0.02666666666666667,0.0,0.0,0.0,0.02666666666666667,0.02666666666666667,0.0,0.0,0.02666666666666667,0.0,0.02666666666666667,0.02666666666666667,0.02666666666666667,0.02666666666666667,0.02666666666666667,0.02666666666666667,0.02666666666666667,0.02666666666666667,0.02666666666666667,0.02666666666666667,0.0,0.02666666666666667,0.02666666666666667,0.02666666666666667,0.02666666666666667,0.02666666666666667,0.02666666666666667,0.02666666666666667,0.02666666666666667,0.02666666666666667,0.02666666666666667,0.02666666666666667,0.02666666666666667
S6_D8 hbo,0.0,0.027338129496402876,0.0,0.025899280575539568,0.0,0.008633093525179856,0.033093525179856115,0.02014388489208633,0.033093525179856115,0.0,0.0,0.0,0.0,0.031654676258992806,0.031654676258992806,0.027338129496402876,0.011510791366906475,0.033093525179856115,0.008633093525179856,0.031654676258992806,0.0,0.0,0.0,0.010071942446043165,0.031654676258992806,0.0,0.0,0.02446043165467626,0.0,0.02877697841726619,0.027338129496402876,0.031654676258992806,0.02302158273381295,0.027338129496402876,0.033093525179856115,0.031654676258992806,0.033093525179856115,0.031654676258992806,0.012949640287769784,0.0,0.027338129496402876,0.030215827338129497,0.02158273381294964,0.033093525179856115,0.030215827338129497,0.027338129496402876,0.025899280575539568,0.030215827338129497,0.02302158273381295,0.02877697841726619,0.033093525179856115,0.01870503597122302
S7_D5 hbo,0.0,0.0,0.0,0.0,0.0,0.0,0.0,0.0,0.0,0.0,0.0,0.0,0.0,0.0,0.0,0.0,0.0,0.0,0.0,0.0,0.0,0.0,0.0,0.0,0.0,0.0,0.0,0.0,0.0,0.0,0.0,0.0,0.0,0.0,0.0,0.0,0.0,0.0,0.0,0.0,0.0,0.0,0.0,0.0,0.0,0.0,0.0,0.0,0.0,0.0,0.0,0.0
S7_D7 hbo,0.0,0.0,0.0,0.0,0.0,0.0,0.0,0.0,0.0,0.0,0.0,0.0,0.0,0.0,0.0,0.0,0.0,0.0,0.0,0.0,0.0,0.0,0.0,0.0,0.0,0.0,0.0,0.0,0.0,0.0,0.0,0.0,0.0,0.0,0.0,0.0,0.0,0.0,0.0,0.0,0.0,0.0,0.0,0.0,0.0,0.0,0.0,0.0,0.0,0.0,0.0,0.0
S7_D8 hbo,0.0,0.0,0.0,0.0,0.0,0.0,0.0,0.0,0.0,0.0,0.0,0.0,0.0,0.0,0.0,0.0,0.0,0.0,0.0,0.0,0.0,0.0,0.0,0.0,0.0,0.0,0.0,0.0,0.0,0.0,0.0,0.0,0.0,0.0,0.0,0.0,0.0,0.0,0.0,0.0,0.0,0.0,0.0,0.0,0.0,0.0,0.0,0.0,0.0,0.0,0.0,0.0
S8_D6 hbo,0.0,0.02702702702702703,0.0,0.02702702702702703,0.0,0.015444015444015444,0.02702702702702703,0.02702702702702703,0.02702702702702703,0.0,0.0,0.0,0.0,0.02702702702702703,0.02702702702702703,0.02702702702702703,0.023166023166023165,0.02702702702702703,0.019305019305019305,0.02702702702702703,0.0,0.0,0.0,0.023166023166023165,0.02702702702702703,0.0,0.0,0.02702702702702703,0.0,0.02702702702702703,0.02702702702702703,0.02702702702702703,0.02702702702702703,0.02702702702702703,0.02702702702702703,0.02702702702702703,0.02702702702702703,0.02702702702702703,0.02702702702702703,0.0,0.02702702702702703,0.02702702702702703,0.02702702702702703,0.02702702702702703,0.02702702702702703,0.02702702702702703,0.02702702702702703,0.02702702702702703,0.02702702702702703,0.02702702702702703,0.02702702702702703,0.02702702702702703
S8_D8 hbo,0.0,0.026627218934911243,0.0,0.026627218934911243,0.0,0.008875739644970414,0.03254437869822485,0.020710059171597635,0.03254437869822485,0.0,0.0,0.0,0.0,0.03106508875739645,0.03106508875739645,0.028106508875739646,0.011834319526627219,0.03254437869822485,0.008875739644970414,0.03106508875739645,0.0,0.0,0.0,0.010355029585798817,0.03106508875739645,0.0,0.0,0.02514792899408284,0.0,0.029585798816568046,0.026627218934911243,0.03106508875739645,0.023668639053254437,0.028106508875739646,0.03254437869822485,0.03106508875739645,0.03254437869822485,0.03106508875739645,0.013313609467455622,0.0,0.028106508875739646,0.029585798816568046,0.022189349112426034,0.03254437869822485,0.029585798816568046,0.028106508875739646,0.026627218934911243,0.029585798816568046,0.023668639053254437,0.029585798816568046,0.03254437869822485,0.019230769230769232
S8_D15 hbo,0.0,0.0,0.0,0.0,0.0,0.0,0.0,0.0,0.0,0.0,0.0,0.0,0.0,0.0,0.0,0.0,0.0,0.0,0.0,0.0,0.0,0.0,0.0,0.0,0.0,0.0,0.0,0.0,0.0,0.0,0.0,0.0,0.0,0.0,0.0,0.0,0.0,0.0,0.0,0.0,0.0,0.0,0.0,0.0,0.0,0.0,0.0,0.0,0.0,0.0,0.0,0.0
S9_D2 hbo,0.0,0.0,0.0,0.0,0.0,0.0,0.0,0.0,0.0,0.0,0.0,0.0,0.0,0.0,0.0,0.0,0.0,0.0,0.0,0.0,0.0,0.0,0.0,0.0,0.0,0.0,0.0,0.0,0.0,0.0,0.0,0.0,0.0,0.0,0.0,0.0,0.0,0.0,0.0,0.0,0.0,0.0,0.0,0.0,0.0,0.0,0.0,0.0,0.0,0.0,0.0,0.0
S9_D9 hbo,0.0,0.02640845070422535,0.0,0.02640845070422535,0.0,0.01056338028169014,0.02992957746478873,0.022887323943661973,0.02992957746478873,0.0,0.0,0.0,0.0,0.02992957746478873,0.02992957746478873,0.02992957746478873,0.014084507042253521,0.02992957746478873,0.01056338028169014,0.02992957746478873,0.0,0.0,0.0,0.01232394366197183,0.02992957746478873,0.0,0.0,0.028169014084507043,0.0,0.02992957746478873,0.02640845070422535,0.02992957746478873,0.02464788732394366,0.028169014084507043,0.02992957746478873,0.02992957746478873,0.02992957746478873,0.02992957746478873,0.01584507042253521,0.0,0.028169014084507043,0.02992957746478873,0.02464788732394366,0.02992957746478873,0.02992957746478873,0.028169014084507043,0.028169014084507043,0.02992957746478873,0.02464788732394366,0.02992957746478873,0.02992957746478873,0.02112676056338028
S9_D11 hbo,0.0,0.0,0.0,0.0,0.0,0.0,0.0,0.0,0.0,0.0,0.0,0.0,0.0,0.0,0.0,0.0,0.0,0.0,0.0,0.0,0.0,0.0,0.0,0.0,0.0,0.0,0.0,0.0,0.0,0.0,0.0,0.0,0.0,0.0,0.0,0.0,0.0,0.0,0.0,0.0,0.0,0.0,0.0,0.0,0.0,0.0,0.0,0.0,0.0,0.0,0.0,0.0
S10_D9 hbo,0.0,0.026397515527950312,0.0,0.026397515527950312,0.0,0.009316770186335404,0.031055900621118012,0.021739130434782608,0.031055900621118012,0.0,0.0,0.0,0.0,0.031055900621118012,0.031055900621118012,0.029503105590062112,0.012422360248447204,0.031055900621118012,0.009316770186335404,0.031055900621118012,0.0,0.0,0.0,0.010869565217391304,0.031055900621118012,0.0,0.0,0.026397515527950312,0.0,0.029503105590062112,0.026397515527950312,0.031055900621118012,0.024844720496894408,0.027950310559006212,0.031055900621118012,0.031055900621118012,0.031055900621118012,0.031055900621118012,0.013975155279503106,0.0,0.027950310559006212,0.029503105590062112,0.023291925465838508,0.031055900621118012,0.029503105590062112,0.027950310559006212,0.027950310559006212,0.029503105590062112,0.024844720496894408,0.029503105590062112,0.031055900621118012,0.020186335403726708
S10_D10 hbo,0.0,0.028346456692913385,0.0,0.028346456692913385,0.0,0.009448818897637795,0.029921259842519685,0.02204724409448819,0.029921259842519685,0.0,0.0,0.0,0.0,0.029921259842519685,0.029921259842519685,0.028346456692913385,0.012598425196850394,0.029921259842519685,0.009448818897637795,0.029921259842519685,0.0,0.0,0.0,0.011023622047244094,0.029921259842519685,0.0,0.0,0.026771653543307086,0.0,0.029921259842519685,0.028346456692913385,0.029921259842519685,0.025196850393700787,0.029921259842519685,0.029921259842519685,0.029921259842519685,0.029921259842519685,0.029921259842519685,0.014173228346456693,0.0,0.029921259842519685,0.029921259842519685,0.023622047244094488,0.029921259842519685,0.029921259842519685,0.029921259842519685,0.028346456692913385,0.029921259842519685,0.025196850393700787,0.029921259842519685,0.029921259842519685,0.02047244094488189
S10_D12 hbo,0.0,0.027338129496402876,0.0,0.025899280575539568,0.0,0.008633093525179856,0.033093525179856115,0.02014388489208633,0.033093525179856115,0.0,0.0,0.0,0.0,0.031654676258992806,0.031654676258992806,0.027338129496402876,0.011510791366906475,0.033093525179856115,0.008633093525179856,0.031654676258992806,0.0,0.0,0.0,0.010071942446043165,0.031654676258992806,0.0,0.0,0.02446043165467626,0.0,0.02877697841726619,0.027338129496402876,0.031654676258992806,0.02302158273381295,0.027338129496402876,0.033093525179856115,0.031654676258992806,0.033093525179856115,0.031654676258992806,0.012949640287769784,0.0,0.027338129496402876,0.030215827338129497,0.02158273381294964,0.033093525179856115,0.030215827338129497,0.027338129496402876,0.025899280575539568,0.030215827338129497,0.02302158273381295,0.02877697841726619,0.033093525179856115,0.01870503597122302
S11_D9 hbo,0.0,0.02877697841726619,0.0,0.02877697841726619,0.0,0.01079136690647482,0.02877697841726619,0.025179856115107913,0.02877697841726619,0.0,0.0,0.0,0.0,0.02877697841726619,0.02877697841726619,0.02877697841726619,0.014388489208633094,0.02877697841726619,0.01079136690647482,0.02877697841726619,0.0,0.0,0.0,0.012589928057553957,0.02877697841726619,0.0,0.0,0.02877697841726619,0.0,0.02877697841726619,0.02877697841726619,0.02877697841726619,0.02697841726618705,0.02877697841726619,0.02877697841726619,0.02877697841726619,0.02877697841726619,0.02877697841726619,0.01618705035971223,0.0,0.02877697841726619,0.02877697841726619,0.02697841726618705,0.02877697841726619,0.02877697841726619,0.02877697841726619,0.02877697841726619,0.02877697841726619,0.02697841726618705,0.02877697841726619,0.02877697841726619,0.023381294964028777
S11_D11 hbo,0.0,0.026984126984126985,0.0,0.026984126984126985,0.0,0.009523809523809525,0.03015873015873016,0.022222222222222223,0.03015873015873016,0.0,0.0,0.0,0.0,0.03015873015873016,0.03015873015873016,0.03015873015873016,0.012698412698412698,0.03015873015873016,0.009523809523809525,0.03015873015873016,0.0,0.0,0.0,0.011111111111111112,0.03015873015873016,0.0,0.0,0.026984126984126985,0.0,0.03015873015873016,0.026984126984126985,0.03015873015873016,0.025396825396825397,0.02857142857142857,0.03015873015873016,0.03015873015873016,0.03015873015873016,0.03015873015873016,0.014285714285714285,0.0,0.02857142857142857,0.03015873015873016,0.023809523809523808,0.03015873015873016,0.03015873015873016,0.02857142857142857,0.02857142857142857,0.03015873015873016,0.025396825396825397,0.03015873015873016,0.03015873015873016,0.020634920634920634
S11_D12 hbo,0.0,0.02676056338028169,0.0,0.02535211267605634,0.0,0.008450704225352112,0.03380281690140845,0.01971830985915493,0.035211267605633804,0.0,0.0,0.0,0.0,0.0323943661971831,0.0323943661971831,0.02676056338028169,0.011267605633802818,0.03380281690140845,0.008450704225352112,0.0323943661971831,0.0,0.0,0.0,0.009859154929577466,0.030985915492957747,0.0,0.0,0.023943661971830985,0.0,0.028169014084507043,0.02676056338028169,0.0323943661971831,0.022535211267605635,0.02676056338028169,0.03380281690140845,0.0323943661971831,0.035211267605633804,0.0323943661971831,0.01267605633802817,0.0,0.02676056338028169,0.029577464788732393,0.02112676056338028,0.03380281690140845,0.030985915492957747,0.02676056338028169,0.02535211267605634,0.029577464788732393,0.022535211267605635,0.028169014084507043,0.0323943661971831,0.018309859154929577
S11_D13 hbo,0.0,0.026836158192090395,0.0,0.025423728813559324,0.0,0.00847457627118644,0.03389830508474576,0.01977401129943503,0.03389830508474576,0.0,0.0,0.0,0.0,0.03248587570621469,0.03248587570621469,0.026836158192090395,0.011299435028248588,0.03389830508474576,0.00847457627118644,0.03248587570621469,0.0,0.0,0.0,0.009887005649717515,0.031073446327683617,0.0,0.0,0.02401129943502825,0.0,0.02824858757062147,0.026836158192090395,0.03248587570621469,0.022598870056497175,0.026836158192090395,0.03389830508474576,0.03248587570621469,0.03389830508474576,0.03248587570621469,0.012711864406779662,0.0,0.026836158192090395,0.029661016949152543,0.0211864406779661,0.03389830508474576,0.031073446327683617,0.026836158192090395,0.025423728813559324,0.029661016949152543,0.022598870056497175,0.02824858757062147,0.03248587570621469,0.018361581920903956
S12_D10 hbo,0.0,0.02676056338028169,0.0,0.02535211267605634,0.0,0.008450704225352112,0.03380281690140845,0.01971830985915493,0.035211267605633804,0.0,0.0,0.0,0.0,0.0323943661971831,0.0323943661971831,0.02676056338028169,0.011267605633802818,0.03380281690140845,0.008450704225352112,0.0323943661971831,0.0,0.0,0.0,0.009859154929577466,0.030985915492957747,0.0,0.0,0.023943661971830985,0.0,0.028169014084507043,0.02676056338028169,0.0323943661971831,0.022535211267605635,0.02676056338028169,0.03380281690140845,0.0323943661971831,0.035211267605633804,0.0323943661971831,0.01267605633802817,0.0,0.02676056338028169,0.029577464788732393,0.02112676056338028,0.03380281690140845,0.030985915492957747,0.02676056338028169,0.02535211267605634,0.029577464788732393,0.022535211267605635,0.028169014084507043,0.0323943661971831,0.018309859154929577
S12_D12 hbo,0.0,0.027338129496402876,0.0,0.025899280575539568,0.0,0.008633093525179856,0.033093525179856115,0.02014388489208633,0.033093525179856115,0.0,0.0,0.0,0.0,0.031654676258992806,0.031654676258992806,0.027338129496402876,0.011510791366906475,0.033093525179856115,0.008633093525179856,0.031654676258992806,0.0,0.0,0.0,0.010071942446043165,0.031654676258992806,0.0,0.0,0.02446043165467626,0.0,0.02877697841726619,0.027338129496402876,0.031654676258992806,0.02302158273381295,0.027338129496402876,0.033093525179856115,0.031654676258992806,0.033093525179856115,0.031654676258992806,0.012949640287769784,0.0,0.027338129496402876,0.030215827338129497,0.02158273381294964,0.033093525179856115,0.030215827338129497,0.027338129496402876,0.025899280575539568,0.030215827338129497,0.02302158273381295,0.02877697841726619,0.033093525179856115,0.01870503597122302
S12_D14 hbo,0.0,0.02727272727272727,0.0,0.02727272727272727,0.0,0.015151515151515152,0.02727272727272727,0.02727272727272727,0.02727272727272727,0.0,0.0,0.0,0.0,0.02727272727272727,0.02727272727272727,0.02727272727272727,0.021212121212121213,0.02727272727272727,0.01818181818181818,0.02727272727272727,0.0,0.0,0.0,0.021212121212121213,0.02727272727272727,0.0,0.0,0.02727272727272727,0.0,0.02727272727272727,0.02727272727272727,0.02727272727272727,0.02727272727272727,0.02727272727272727,0.02727272727272727,0.02727272727272727,0.02727272727272727,0.02727272727272727,0.024242424242424242,0.0,0.02727272727272727,0.02727272727272727,0.02727272727272727,0.02727272727272727,0.02727272727272727,0.02727272727272727,0.02727272727272727,0.02727272727272727,0.02727272727272727,0.02727272727272727,0.02727272727272727,0.02727272727272727
S13_D6 hbo,0.0,0.0,0.0,0.0,0.0,0.0,0.0,0.0,0.0,0.0,0.0,0.0,0.0,0.0,0.0,0.0,0.0,0.0,0.0,0.0,0.0,0.0,0.0,0.0,0.0,0.0,0.0,0.0,0.0,0.0,0.0,0.0,0.0,0.0,0.0,0.0,0.0,0.0,0.0,0.0,0.0,0.0,0.0,0.0,0.0,0.0,0.0,0.0,0.0,0.0,0.0,0.0
S13_D11 hbo,0.0,0.026984126984126985,0.0,0.026984126984126985,0.0,0.009523809523809525,0.03015873015873016,0.022222222222222223,0.03015873015873016,0.0,0.0,0.0,0.0,0.03015873015873016,0.03015873015873016,0.03015873015873016,0.012698412698412698,0.03015873015873016,0.009523809523809525,0.03015873015873016,0.0,0.0,0.0,0.011111111111111112,0.03015873015873016,0.0,0.0,0.026984126984126985,0.0,0.03015873015873016,0.026984126984126985,0.03015873015873016,0.025396825396825397,0.02857142857142857,0.03015873015873016,0.03015873015873016,0.03015873015873016,0.03015873015873016,0.014285714285714285,0.0,0.02857142857142857,0.03015873015873016,0.023809523809523808,0.03015873015873016,0.03015873015873016,0.02857142857142857,0.02857142857142857,0.03015873015873016,0.025396825396825397,0.03015873015873016,0.03015873015873016,0.020634920634920634
S13_D13 hbo,0.0,0.026905829596412557,0.0,0.026905829596412557,0.0,0.008968609865470852,0.03139013452914798,0.02092675635276532,0.03139013452914798,0.0,0.0,0.0,0.0,0.03139013452914798,0.03139013452914798,0.028400597907324365,0.01195814648729447,0.03139013452914798,0.008968609865470852,0.03139013452914798,0.0,0.0,0.0,0.01046337817638266,0.03139013452914798,0.0,0.0,0.025411061285500747,0.0,0.029895366218236172,0.026905829596412557,0.03139013452914798,0.02391629297458894,0.028400597907324365,0.03139013452914798,0.03139013452914798,0.03139013452914798,0.03139013452914798,0.013452914798206279,0.0,0.028400597907324365,0.029895366218236172,0.02242152466367713,0.03139013452914798,0.029895366218236172,0.028400597907324365,0.026905829596412557,0.029895366218236172,0.02391629297458894,0.029895366218236172,0.03139013452914798,0.01943198804185351
S13_D15 hbo,0.0,0.028680688336520075,0.0,0.028680688336520075,0.0,0.011472275334608031,0.028680688336520075,0.0248565965583174,0.028680688336520075,0.0,0.0,0.0,0.0,0.028680688336520075,0.028680688336520075,0.028680688336520075,0.015296367112810707,0.028680688336520075,0.011472275334608031,0.028680688336520075,0.0,0.0,0.0,0.01338432122370937,0.028680688336520075,0.0,0.0,0.028680688336520075,0.0,0.028680688336520075,0.028680688336520075,0.028680688336520075,0.02676864244741874,0.028680688336520075,0.028680688336520075,0.028680688336520075,0.028680688336520075,0.028680688336520075,0.017208413001912046,0.0,0.028680688336520075,0.028680688336520075,0.02676864244741874,0.028680688336520075,0.028680688336520075,0.028680688336520075,0.028680688336520075,0.028680688336520075,0.02676864244741874,0.028680688336520075,0.028680688336520075,0.022944550669216062
S14_D12 hbo,0.0,0.026499302649930265,0.0,0.02510460251046025,0.0,0.008368200836820083,0.03486750348675035,0.019525801952580194,0.03626220362622036,0.0,0.0,0.0,0.0,0.03347280334728033,0.03207810320781032,0.026499302649930265,0.011157601115760111,0.03347280334728033,0.008368200836820083,0.03207810320781032,0.0,0.0,0.0,0.009762900976290097,0.030683403068340307,0.0,0.0,0.023709902370990237,0.0,0.02789400278940028,0.026499302649930265,0.03207810320781032,0.022315202231520222,0.026499302649930265,0.03486750348675035,0.03347280334728033,0.03626220362622036,0.03207810320781032,0.012552301255230125,0.0,0.026499302649930265,0.029288702928870293,0.02092050209205021,0.03486750348675035,0.030683403068340307,0.026499302649930265,0.02510460251046025,0.029288702928870293,0.022315202231520222,0.02789400278940028,0.03207810320781032,0.01813110181311018
S14_D13 hbo,0.0,0.027616279069767442,0.0,0.02616279069767442,0.0,0.00872093023255814,0.03197674418604651,0.020348837209302327,0.03197674418604651,0.0,0.0,0.0,0.0,0.03197674418604651,0.03197674418604651,0.027616279069767442,0.011627906976744186,0.03197674418604651,0.00872093023255814,0.03197674418604651,0.0,0.0,0.0,0.010174418604651164,0.03197674418604651,0.0,0.0,0.024709302325581394,0.0,0.029069767441860465,0.027616279069767442,0.03197674418604651,0.023255813953488372,0.027616279069767442,0.03197674418604651,0.03197674418604651,0.03197674418604651,0.03197674418604651,0.01308139534883721,0.0,0.027616279069767442,0.030523255813953487,0.02180232558139535,0.03197674418604651,0.030523255813953487,0.027616279069767442,0.02616279069767442,0.030523255813953487,0.023255813953488372,0.029069767441860465,0.03197674418604651,0.0188953488372093
S14_D14 hbo,0.0,0.026984126984126985,0.0,0.026984126984126985,0.0,0.009523809523809525,0.03015873015873016,0.022222222222222223,0.03015873015873016,0.0,0.0,0.0,0.0,0.03015873015873016,0.03015873015873016,0.03015873015873016,0.012698412698412698,0.03015873015873016,0.009523809523809525,0.03015873015873016,0.0,0.0,0.0,0.011111111111111112,0.03015873015873016,0.0,0.0,0.026984126984126985,0.0,0.03015873015873016,0.026984126984126985,0.03015873015873016,0.025396825396825397,0.02857142857142857,0.03015873015873016,0.03015873015873016,0.03015873015873016,0.03015873015873016,0.014285714285714285,0.0,0.02857142857142857,0.03015873015873016,0.023809523809523808,0.03015873015873016,0.03015873015873016,0.02857142857142857,0.02857142857142857,0.03015873015873016,0.025396825396825397,0.03015873015873016,0.03015873015873016,0.020634920634920634
S14_D16 hbo,0.0,0.026622296173044926,0.0,0.026622296173044926,0.0,0.009983361064891847,0.029950083194675542,0.02329450915141431,0.029950083194675542,0.0,0.0,0.0,0.0,0.029950083194675542,0.029950083194675542,0.029950083194675542,0.013311148086522463,0.029950083194675542,0.009983361064891847,0.029950083194675542,0.0,0.0,0.0,0.011647254575707155,0.029950083194675542,0.0,0.0,0.028286189683860232,0.0,0.029950083194675542,0.026622296173044926,0.029950083194675542,0.024958402662229616,0.028286189683860232,0.029950083194675542,0.029950083194675542,0.029950083194675542,0.029950083194675542,0.014975041597337771,0.0,0.028286189683860232,0.029950083194675542,0.024958402662229616,0.029950083194675542,0.029950083194675542,0.028286189683860232,0.028286189683860232,0.029950083194675542,0.024958402662229616,0.029950083194675542,0.029950083194675542,0.021630615640599003
S15_D13 hbo,0.0,0.026905829596412557,0.0,0.026905829596412557,0.0,0.008968609865470852,0.03139013452914798,0.02092675635276532,0.03139013452914798,0.0,0.0,0.0,0.0,0.03139013452914798,0.03139013452914798,0.028400597907324365,0.01195814648729447,0.03139013452914798,0.008968609865470852,0.03139013452914798,0.0,0.0,0.0,0.01046337817638266,0.03139013452914798,0.0,0.0,0.025411061285500747,0.0,0.029895366218236172,0.026905829596412557,0.03139013452914798,0.02391629297458894,0.028400597907324365,0.03139013452914798,0.03139013452914798,0.03139013452914798,0.03139013452914798,0.013452914798206279,0.0,0.028400597907324365,0.029895366218236172,0.02242152466367713,0.03139013452914798,0.029895366218236172,0.028400597907324365,0.026905829596412557,0.029895366218236172,0.02391629297458894,0.029895366218236172,0.03139013452914798,0.01943198804185351
S15_D15 hbo,0.0,0.02877697841726619,0.0,0.02877697841726619,0.0,0.01079136690647482,0.02877697841726619,0.025179856115107913,0.02877697841726619,0.0,0.0,0.0,0.0,0.02877697841726619,0.02877697841726619,0.02877697841726619,0.014388489208633094,0.02877697841726619,0.01079136690647482,0.02877697841726619,0.0,0.0,0.0,0.012589928057553957,0.02877697841726619,0.0,0.0,0.02877697841726619,0.0,0.02877697841726619,0.02877697841726619,0.02877697841726619,0.02697841726618705,0.02877697841726619,0.02877697841726619,0.02877697841726619,0.02877697841726619,0.02877697841726619,0.01618705035971223,0.0,0.02877697841726619,0.02877697841726619,0.02697841726618705,0.02877697841726619,0.02877697841726619,0.02877697841726619,0.02877697841726619,0.02877697841726619,0.02697841726618705,0.02877697841726619,0.02877697841726619,0.023381294964028777
S15_D16 hbo,0.0,0.026397515527950312,0.0,0.026397515527950312,0.0,0.009316770186335404,0.031055900621118012,0.021739130434782608,0.031055900621118012,0.0,0.0,0.0,0.0,0.031055900621118012,0.031055900621118012,0.029503105590062112,0.012422360248447204,0.031055900621118012,0.009316770186335404,0.031055900621118012,0.0,0.0,0.0,0.010869565217391304,0.031055900621118012,0.0,0.0,0.026397515527950312,0.0,0.029503105590062112,0.026397515527950312,0.031055900621118012,0.024844720496894408,0.027950310559006212,0.031055900621118012,0.031055900621118012,0.031055900621118012,0.031055900621118012,0.013975155279503106,0.0,0.027950310559006212,0.029503105590062112,0.023291925465838508,0.031055900621118012,0.029503105590062112,0.027950310559006212,0.027950310559006212,0.029503105590062112,0.024844720496894408,0.029503105590062112,0.031055900621118012,0.020186335403726708
S16_D14 hbo,0.0,0.02654867256637168,0.0,0.02654867256637168,0.0,0.008849557522123894,0.032448377581120944,0.02064896755162242,0.03392330383480826,0.0,0.0,0.0,0.0,0.030973451327433628,0.030973451327433628,0.028023598820058997,0.011799410029498525,0.032448377581120944,0.008849557522123894,0.030973451327433628,0.0,0.0,0.0,0.01032448377581121,0.030973451327433628,0.0,0.0,0.025073746312684365,0.0,0.029498525073746312,0.02654867256637168,0.030973451327433628,0.02359882005899705,0.028023598820058997,0.032448377581120944,0.030973451327433628,0.03392330383480826,0.030973451327433628,0.01327433628318584,0.0,0.028023598820058997,0.029498525073746312,0.022123893805309734,0.032448377581120944,0.029498525073746312,0.028023598820058997,0.02654867256637168,0.029498525073746312,0.02359882005899705,0.029498525073746312,0.032448377581120944,0.019174041297935103
S16_D16 hbo,0.0,0.028017241379310345,0.0,0.028017241379310345,0.0,0.01293103448275862,0.028017241379310345,0.028017241379310345,0.028017241379310345,0.0,0.0,0.0,0.0,0.028017241379310345,0.028017241379310345,0.028017241379310345,0.017241379310344827,0.028017241379310345,0.01293103448275862,0.028017241379310345,0.0,0.0,0.0,0.015086206896551725,0.028017241379310345,0.0,0.0,0.028017241379310345,0.0,0.028017241379310345,0.028017241379310345,0.028017241379310345,0.028017241379310345,0.028017241379310345,0.028017241379310345,0.028017241379310345,0.028017241379310345,0.028017241379310345,0.01939655172413793,0.0,0.028017241379310345,0.028017241379310345,0.028017241379310345,0.028017241379310345,0.028017241379310345,0.028017241379310345,0.028017241379310345,0.028017241379310345,0.028017241379310345,0.028017241379310345,0.028017241379310345,0.02586206896551724
