,S1_D1 hbo,S1_D3 hbo,S2_D1 hbo,S2_D2 hbo,S2_D4 hbo,S3_D1 hbo,S3_D3 hbo,S3_D4 hbo,S3_D5 hbo,S4_D2 hbo,S4_D4 hbo,S4_D6 hbo,S4_D11 hbo,S5_D3 hbo,S5_D5 hbo,S5_D7 hbo,S6_D4 hbo,S6_D5 hbo,S6_D6 hbo,S6_D8 hbo,S7_D5 hbo,S7_D7 hbo,S7_D8 hbo,S8_D6 hbo,S8_D8 hbo,S8_D15 hbo,S9_D2 hbo,S9_D9 hbo,S9_D11 hbo,S10_D9 hbo,S10_D10 hbo,S10_D12 hbo,S11_D9 hbo,S11_D11 hbo,S11_D12 hbo,S11_D13 hbo,S12_D10 hbo,S12_D12 hbo,S12_D14 hbo,S13_D6 hbo,S13_D11 hbo,S13_D13 hbo,S13_D15 hbo,S14_D12 hbo,S14_D13 hbo,S14_D14 hbo,S14_D16 hbo,S15_D13 hbo,S15_D15 hbo,S15_D16 hbo,S16_D14 hbo,S16_D16 hbo
S1_D1 hbo,0.0,0.0,0.0,0.0,0.0,0.0,0.0,0.0,0.0,0.0,0.0,0.0,0.0,0.0,0.0,0.0,0.0,0.0,0.0,0.0,0.0,0.0,0.0,0.0,0.0,0.0,0.0,0.0,0.0,0.0,0.0,0.0,0.0,0.0,0.0,0.0,0.0,0.0,0.0,0.0,0.0,0.0,0.0,0.0,0.0,0.0,0.0,0.0,0.0,0.0,0.0,0.0
S1_D3 hbo,0.0,0.0,0.0,0.0,0.0,0.0,0.0,0.0,0.0,0.0,0.0,0.0,0.0,0.0,0.0,0.0,0.0,0.0,0.0,0.0,0.0,0.0,0.0,0.0,0.0,0.0,0.0,0.0,0.0,0.0,0.0,0.0,0.0,0.0,0.0,0.0,0.0,0.0,0.0,0.0,0.0,0.0,0.0,0.0,0.0,0.0,0.0,0.0,0.0,0.0,0.0,0.0
S2_D1 hbo,0.0,0.0,0.0,0.0,0.0,0.0,0.0,0.0,0.0,0.0,0.0,0.0,0.0,0.0,0.0,0.0,0.0,0.0,0.0,0.0,0.0,0.0,0.0,0.0,0.0,0.0,0.0,0.0,0.0,0.0,0.0,0.0,0.0,0.0,0.0,0.0,0.0,0.0,0.0,0.0,0.0,0.0,0.0,0.0,0.0,0.0,0.0,0.0,0.0,0.0,0.0,0.0
S2_D2 hbo,0.0,0.0,0.0,0.0,0.0,0.0,0.0,0.0,0.0,0.0,0.0,0.0,0.0,0.0,0.0,0.0,0.0,0.0,0.0,0.0,0.0,0.0,0.0,0.0,0.0,0.0,0.0,0.0,0.0,0.0,0.0,0.0,0.0,0.0,0.0,0.0,0.0,0.0,0.0,0.0,0.0,0.0,0.0,0.0,0.0,0.0,0.0,0.0,0.0,0.0,0.0,0.0
S2_D4 hbo,0.0,0.0,0.0,0.0,0.0,0.0,0.0,0.0,0.0,0.0,0.0,0.0,0.0,0.0,0.0,0.0,0.0,0.0,0.0,0.0,0.0,0.0,0.0,0.0,0.0,0.0,0.0,0.0,0.0,0.0,0.0,0.0,0.0,0.0,0.0,0.0,0.0,0.0,0.0,0.0,0.0,0.0,0.0,0.0,0.0,0.0,0.0,0.0,0.0,0.0,0.0,0.0
S3_D1 hbo,0.0,0.0,0.0,0.0,0.0,0.0,0.0,0.0,0.0,0.0,0.0,0.0,0.0,0.0,0.0,0.0,0.0,0.0,0.0,0.0,0.0,0.0,0.0,0.0,0.0,0.0,0.0,0.0,0.0,0.0,0.0,0.0,0.0,0.0,0.0,0.0,0.0,0.0,0.0,0.0,0.0,0.0,0.0,0.0,0.0,0.0,0.0,0.0,0.0,0.0,0.0,0.0
S3_D3 hbo,0.0,0.0,0.0,0.0,0.0,0.0,0.06451612903225806,0.0,0.0,0.0,0.03686635944700461,0.0,0.0,0.0,0.05069124423963134,0.059907834101382486,0.041474654377880185,0.0,0.04608294930875576,0.0,0.0,0.0,0.055299539170506916,0.03225806451612903,0.041474654377880185,0.06451612903225806,0.0,0.059907834101382486,0.013824884792626729,0.0,0.0,0.0,0.0,0.0,0.0,0.06451612903225806,0.0,0.0,0.0,0.055299539170506916,0.0,0.0,0.018433179723502304,0.0,0.06912442396313365,0.0,0.0,0.0,0.05069124423963134,0.059907834101382486,0.06912442396313365,0.04608294930875576
S3_D4 hbo,0.0,0.0,0.0,0.0,0.0,0.0,0.0,0.045454545454545456,0.0,0.0,0.05194805194805195,0.006493506493506494,0.0,0.0,0.05194805194805195,0.05194805194805195,0.05194805194805195,0.0,0.05194805194805195,0.0,0.0,0.0,0.05194805194805195,0.05194805194805195,0.05194805194805195,0.05194805194805195,0.0,0.05194805194805195,0.012987012987012988,0.0,0.0,0.0,0.0,0.0,0.0,0.05194805194805195,0.0,0.0,0.0,0.05194805194805195,0.0,0.0,0.05194805194805195,0.0,0.05194805194805195,0.0,0.0,0.0,0.05194805194805195,0.05194805194805195,0.05194805194805195,0.05194805194805195
S3_D5 hbo,0.0,0.0,0.0,0.0,0.0,0.0,0.0,0.0,0.0,0.0,0.0,0.0,0.0,0.0,0.0,0.0,0.0,0.0,0.0,0.0,0.0,0.0,0.0,0.0,0.0,0.0,0.0,0.0,0.0,0.0,0.0,0.0,0.0,0.0,0.0,0.0,0.0,0.0,0.0,0.0,0.0,0.0,0.0,0.0,0.0,0.0,0.0,0.0,0.0,0.0,0.0,0.0
S4_D2 hbo,0.0,0.0,0.0,0.0,0.0,0.0,0.0,0.0,0.0,0.0,0.0,0.0,0.0,0.0,0.0,0.0,0.0,0.0,0.0,0.0,0.0,0.0,0.0,0.0,0.0,0.0,0.0,0.0,0.0,0.0,0.0,0.0,0.0,0.0,0.0,0.0,0.0,0.0,0.0,0.0,0.0,0.0,0.0,0.0,0.0,0.0,0.0,0.0,0.0,0.0,0.0,0.0
S4_D4 hbo,0.0,0.0,0.0,0.0,0.0,0.0,0.014457831325301205,0.01927710843373494,0.0,0.0,0.05542168674698795,0.0024096385542168677,0.0,0.0,0.043373493975903614,0.05542168674698795,0.05783132530120482,0.0,0.05783132530120482,0.0,0.0,0.0,0.05783132530120482,0.05783132530120482,0.05301204819277108,0.05783132530120482,0.0,0.04096385542168675,0.014457831325301205,0.0,0.0,0.0,0.0,0.0,0.0,0.04819277108433735,0.0,0.0,0.0,0.05301204819277108,0.0,0.0,0.03614457831325301,0.0,0.05060240963855422,0.0,0.0,0.0,0.05783132530120482,0.05783132530120482,0.05301204819277108,0.05542168674698795
S4_D6 hbo,0.0,0.0,0.0,0.0,0.0,0.0,0.0,0.05263157894736842,0.0,0.0,0.05263157894736842,0.0,0.0,0.0,0.05263157894736842,0.05263157894736842,0.05263157894736842,0.0,0.05263157894736842,0.0,0.0,0.0,0.05263157894736842,0.05263157894736842,0.05263157894736842,0.05263157894736842,0.0,0.05263157894736842,0.0,0.0,0.0,0.0,0.0,0.0,0.0,0.05263157894736842,0.0,0.0,0.0,0.05263157894736842,0.0,0.0,0.05263157894736842,0.0,0.05263157894736842,0.0,0.0,0.0,0.05263157894736842,0.05263157894736842,0.05263157894736842,0.05263157894736842
S4_D11 hbo,0.0,0.0,0.0,0.0,0.0,0.0,0.0,0.0,0.0,0.0,0.0,0.0,0.0,0.0,0.0,0.0,0.0,0.0,0.0,0.0,0.0,0.0,0.0,0.0,0.0,0.0,0.0,0.0,0.0,0.0,0.0,0.0,0.0,0.0,0.0,0.0,0.0,0.0,0.0,0.0,0.0,0.0,0.0,0.0,0.0,0.0,0.0,0.0,0.0,0.0,0.0,0.0
S5_D3 hbo,0.0,0.0,0.0,0.0,0.0,0.0,0.0,0.0,0.0,0.0,0.0,0.0,0.0,0.0,0.0,0.0,0.0,0.0,0.0,0.0,0.0,0.0,0.0,0.0,0.0,0.0,0.0,0.0,0.0,0.0,0.0,0.0,0.0,0.0,0.0,0.0,0.0,0.0,0.0,0.0,0.0,0.0,0.0,0.0,0.0,0.0,0.0,0.0,0.0,0.0,0.0,0.0
S5_D5 hbo,0.0,0.0,0.0,0.0,0.0,0.0,0.022332506203473945,0.019851116625310174,0.0,0.0,0.04962779156327544,0.0024813895781637717,0.0,0.0,0.052109181141439205,0.05459057071960298,0.052109181141439205,0.0,0.05459057071960298,0.0,0.0,0.0,0.05459057071960298,0.04714640198511166,0.052109181141439205,0.05459057071960298,0.0,0.04962779156327544,0.01488833746898263,0.0,0.0,0.0,0.0,0.0,0.0,0.05459057071960298,0.0,0.0,0.0,0.05459057071960298,0.0,0.0,0.03722084367245657,0.0,0.05459057071960298,0.0,0.0,0.0,0.05459057071960298,0.05459057071960298,0.05459057071960298,0.05459057071960298
S5_D7 hbo,0.0,0.0,0.0,0.0,0.0,0.0,0.022727272727272728,0.01652892561983471,0.0,0.0,0.049586776859504134,0.002066115702479339,0.0,0.0,0.045454545454545456,0.05785123966942149,0.05371900826446281,0.0,0.05578512396694215,0.0,0.0,0.0,0.05991735537190083,0.049586776859504134,0.049586776859504134,0.05991735537190083,0.0,0.045454545454545456,0.012396694214876033,0.0,0.0,0.0,0.0,0.0,0.0,0.05165289256198347,0.0,0.0,0.0,0.05578512396694215,0.0,0.0,0.030991735537190084,0.0,0.05371900826446281,0.0,0.0,0.0,0.05785123966942149,0.05991735537190083,0.05578512396694215,0.05371900826446281
S6_D4 hbo,0.0,0.0,0.0,0.0,0.0,0.0,0.015909090909090907,0.01818181818181818,0.0,0.0,0.05454545454545454,0.0022727272727272726,0.0,0.0,0.04318181818181818,0.05454545454545454,0.06136363636363636,0.0,0.05909090909090909,0.0,0.0,0.0,0.06363636363636363,0.05454545454545454,0.05227272727272727,0.05909090909090909,0.0,0.04090909090909091,0.013636363636363636,0.0,0.0,0.0,0.0,0.0,0.0,0.04772727272727273,0.0,0.0,0.0,0.05227272727272727,0.0,0.0,0.03409090909090909,0.0,0.05,0.0,0.0,0.0,0.05909090909090909,0.056818181818181816,0.05227272727272727,0.05454545454545454
S6_D5 hbo,0.0,0.0,0.0,0.0,0.0,0.0,0.0,0.0,0.0,0.0,0.0,0.0,0.0,0.0,0.0,0.0,0.0,0.0,0.0,0.0,0.0,0.0,0.0,0.0,0.0,0.0,0.0,0.0,0.0,0.0,0.0,0.0,0.0,0.0,0.0,0.0,0.0,0.0,0.0,0.0,0.0,0.0,0.0,0.0,0.0,0.0,0.0,0.0,0.0,0.0,0.0,0.0
S6_D6 hbo,0.0,0.0,0.0,0.0,0.0,0.0,0.017582417582417582,0.017582417582417582,0.0,0.0,0.05274725274725275,0.002197802197802198,0.0,0.0,0.04395604395604396,0.054945054945054944,0.06153846153846154,0.0,0.05934065934065934,0.0,0.0,0.0,0.06153846153846154,0.05274725274725275,0.05274725274725275,0.05934065934065934,0.0,0.041758241758241756,0.013186813186813187,0.0,0.0,0.0,0.0,0.0,0.0,0.04835164835164835,0.0,0.0,0.0,0.05274725274725275,0.0,0.0,0.03296703296703297,0.0,0.05054945054945055,0.0,0.0,0.0,0.05934065934065934,0.05714285714285714,0.05274725274725275,0.054945054945054944
S6_D8 hbo,0.0,0.0,0.0,0.0,0.0,0.0,0.0,0.0,0.0,0.0,0.0,0.0,0.0,0.0,0.0,0.0,0.0,0.0,0.0,0.0,0.0,0.0,0.0,0.0,0.0,0.0,0.0,0.0,0.0,0.0,0.0,0.0,0.0,0.0,0.0,0.0,0.0,0.0,0.0,0.0,0.0,0.0,0.0,0.0,0.0,0.0,0.0,0.0,0.0,0.0,0.0,0.0
S7_D5 hbo,0.0,0.0,0.0,0.0,0.0,0.0,0.0,0.0,0.0,0.0,0.0,0.0,0.0,0.0,0.0,0.0,0.0,0.0,0.0,0.0,0.0,0.0,0.0,0.0,0.0,0.0,0.0,0.0,0.0,0.0,0.0,0.0,0.0,0.0,0.0,0.0,0.0,0.0,0.0,0.0,0.0,0.0,0.0,0.0,0.0,0.0,0.0,0.0,0.0,0.0,0.0,0.0
S7_D7 hbo,0.0,0.0,0.0,0.0,0.0,0.0,0.0,0.0,0.0,0.0,0.0,0.0,0.0,0.0,0.0,0.0,0.0,0.0,0.0,0.0,0.0,0.0,0.0,0.0,0.0,0.0,0.0,0.0,0.0,0.0,0.0,0.0,0.0,0.0,0.0,0.0,0.0,0.0,0.0,0.0,0.0,0.0,0.0,0.0,0.0,0.0,0.0,0.0,0.0,0.0,0.0,0.0
S7_D8 hbo,0.0,0.0,0.0,0.0,0.0,0.0,0.02074688796680498,0.016597510373443983,0.0,0.0,0.04979253112033195,0.002074688796680498,0.0,0.0,0.04564315352697095,0.056016597510373446,0.058091286307053944,0.0,0.058091286307053944,0.0,0.0,0.0,0.06431535269709543,0.04979253112033195,0.04979253112033195,0.06016597510373444,0.0,0.043568464730290454,0.012448132780082987,0.0,0.0,0.0,0.0,0.0,0.0,0.04979253112033195,0.0,0.0,0.0,0.05394190871369295,0.0,0.0,0.03112033195020747,0.0,0.05186721991701245,0.0,0.0,0.0,0.06016597510373444,0.058091286307053944,0.05394190871369295,0.05394190871369295
S8_D6 hbo,0.0,0.0,0.0,0.0,0.0,0.0,0.012437810945273632,0.01990049751243781,0.0,0.0,0.05472636815920398,0.0024875621890547263,0.0,0.0,0.04228855721393035,0.05472636815920398,0.05970149253731343,0.0,0.05970149253731343,0.0,0.0,0.0,0.05970149253731343,0.05721393034825871,0.05223880597014925,0.05970149253731343,0.0,0.03980099502487562,0.014925373134328358,0.0,0.0,0.0,0.0,0.0,0.0,0.0472636815920398,0.0,0.0,0.0,0.05223880597014925,0.0,0.0,0.03731343283582089,0.0,0.04975124378109453,0.0,0.0,0.0,0.05970149253731343,0.05721393034825871,0.05223880597014925,0.05472636815920398
S8_D8 hbo,0.0,0.0,0.0,0.0,0.0,0.0,0.01647058823529412,0.018823529411764704,0.0,0.0,0.05647058823529412,0.002352941176470588,0.0,0.0,0.04470588235294118,0.05647058823529412,0.05647058823529412,0.0,0.05647058823529412,0.0,0.0,0.0,0.05647058823529412,0.05411764705882353,0.05411764705882353,0.05647058823529412,0.0,0.042352941176470586,0.01411764705882353,0.0,0.0,0.0,0.0,0.0,0.0,0.04941176470588235,0.0,0.0,0.0,0.05411764705882353,0.0,0.0,0.03529411764705882,0.0,0.05176470588235294,0.0,0.0,0.0,0.05647058823529412,0.05647058823529412,0.05411764705882353,0.05647058823529412
S8_D15 hbo,0.0,0.0,0.0,0.0,0.0,0.0,0.02404809619238477,0.01603206412825651,0.0,0.0,0.04809619238476954,0.002004008016032064,0.0,0.0,0.04408817635270541,0.05811623246492986,0.056112224448897796,0.0,0.056112224448897796,0.0,0.0,0.0,0.06212424849699399,0.04809619238476954,0.04809619238476954,0.06212424849699399,0.0,0.04609218436873747,0.012024048096192385,0.0,0.0,0.0,0.0,0.0,0.0,0.052104208416833664,0.0,0.0,0.0,0.05410821643286573,0.0,0.0,0.03006012024048096,0.0,0.05410821643286573,0.0,0.0,0.0,0.05811623246492986,0.06012024048096192,0.056112224448897796,0.052104208416833664
S9_D2 hbo,0.0,0.0,0.0,0.0,0.0,0.0,0.0,0.0,0.0,0.0,0.0,0.0,0.0,0.0,0.0,0.0,0.0,0.0,0.0,0.0,0.0,0.0,0.0,0.0,0.0,0.0,0.0,0.0,0.0,0.0,0.0,0.0,0.0,0.0,0.0,0.0,0.0,0.0,0.0,0.0,0.0,0.0,0.0,0.0,0.0,0.0,0.0,0.0,0.0,0.0,0.0,0.0
S9_D9 hbo,0.0,0.0,0.0,0.0,0.0,0.0,0.026829268292682926,0.01951219512195122,0.0,0.0,0.046341463414634146,0.0024390243902439024,0.0,0.0,0.05365853658536585,0.05609756097560976,0.04878048780487805,0.0,0.05121951219512195,0.0,0.0,0.0,0.05609756097560976,0.04390243902439024,0.04878048780487805,0.05609756097560976,0.0,0.05365853658536585,0.014634146341463415,0.0,0.0,0.0,0.0,0.0,0.0,0.05609756097560976,0.0,0.0,0.0,0.05609756097560976,0.0,0.0,0.036585365853658534,0.0,0.05609756097560976,0.0,0.0,0.0,0.05365853658536585,0.05609756097560976,0.05609756097560976,0.05121951219512195
S9_D11 hbo,0.0,0.0,0.0,0.0,0.0,0.0,0.00847457627118644,0.03389830508474576,0.0,0.0,0.05084745762711865,0.0,0.0,0.0,0.05084745762711865,0.05084745762711865,0.05084745762711865,0.0,0.05084745762711865,0.0,0.0,0.0,0.05084745762711865,0.05084745762711865,0.05084745762711865,0.05084745762711865,0.0,0.05084745762711865,0.0423728813559322,0.0,0.0,0.0,0.0,0.0,0.0,0.05084745762711865,0.0,0.0,0.0,0.05084745762711865,0.0,0.0,0.05084745762711865,0.0,0.05084745762711865,0.0,0.0,0.0,0.05084745762711865,0.05084745762711865,0.05084745762711865,0.05084745762711865
S10_D9 hbo,0.0,0.0,0.0,0.0,0.0,0.0,0.0,0.0,0.0,0.0,0.0,0.0,0.0,0.0,0.0,0.0,0.0,0.0,0.0,0.0,0.0,0.0,0.0,0.0,0.0,0.0,0.0,0.0,0.0,0.0,0.0,0.0,0.0,0.0,0.0,0.0,0.0,0.0,0.0,0.0,0.0,0.0,0.0,0.0,0.0,0.0,0.0,0.0,0.0,0.0,0.0,0.0
S10_D10 hbo,0.0,0.0,0.0,0.0,0.0,0.0,0.0,0.0,0.0,0.0,0.0,0.0,0.0,0.0,0.0,0.0,0.0,0.0,0.0,0.0,0.0,0.0,0.0,0.0,0.0,0.0,0.0,0.0,0.0,0.0,0.0,0.0,0.0,0.0,0.0,0.0,0.0,0.0,0.0,0.0,0.0,0.0,0.0,0.0,0.0,0.0,0.0,0.0,0.0,0.0,0.0,0.0
S10_D12 hbo,0.0,0.0,0.0,0.0,0.0,0.0,0.0,0.0,0.0,0.0,0.0,0.0,0.0,0.0,0.0,0.0,0.0,0.0,0.0,0.0,0.0,0.0,0.0,0.0,0.0,0.0,0.0,0.0,0.0,0.0,0.0,0.0,0.0,0.0,0.0,0.0,0.0,0.0,0.0,0.0,0.0,0.0,0.0,0.0,0.0,0.0,0.0,0.0,0.0,0.0,0.0,0.0
S11_D9 hbo,0.0,0.0,0.0,0.0,0.0,0.0,0.0,0.0,0.0,0.0,0.0,0.0,0.0,0.0,0.0,0.0,0.0,0.0,0.0,0.0,0.0,0.0,0.0,0.0,0.0,0.0,0.0,0.0,0.0,0.0,0.0,0.0,0.0,0.0,0.0,0.0,0.0,0.0,0.0,0.0,0.0,0.0,0.0,0.0,0.0,0.0,0.0,0.0,0.0,0.0,0.0,0.0
S11_D11 hbo,0.0,0.0,0.0,0.0,0.0,0.0,0.0,0.0,0.0,0.0,0.0,0.0,0.0,0.0,0.0,0.0,0.0,0.0,0.0,0.0,0.0,0.0,0.0,0.0,0.0,0.0,0.0,0.0,0.0,0.0,0.0,0.0,0.0,0.0,0.0,0.0,0.0,0.0,0.0,0.0,0.0,0.0,0.0,0.0,0.0,0.0,0.0,0.0,0.0,0.0,0.0,0.0
S11_D12 hbo,0.0,0.0,0.0,0.0,0.0,0.0,0.0,0.0,0.0,0.0,0.0,0.0,0.0,0.0,0.0,0.0,0.0,0.0,0.0,0.0,0.0,0.0,0.0,0.0,0.0,0.0,0.0,0.0,0.0,0.0,0.0,0.0,0.0,0.0,0.0,0.0,0.0,0.0,0.0,0.0,0.0,0.0,0.0,0.0,0.0,0.0,0.0,0.0,0.0,0.0,0.0,0.0
S11_D13 hbo,0.0,0.0,0.0,0.0,0.0,0.0,0.025974025974025976,0.017316017316017316,0.0,0.0,0.047619047619047616,0.0021645021645021645,0.0,0.0,0.047619047619047616,0.05844155844155844,0.049783549783549784,0.0,0.05194805194805195,0.0,0.0,0.0,0.05627705627705628,0.045454545454545456,0.049783549783549784,0.05844155844155844,0.0,0.049783549783549784,0.012987012987012988,0.0,0.0,0.0,0.0,0.0,0.0,0.05627705627705628,0.0,0.0,0.0,0.05627705627705628,0.0,0.0,0.032467532467532464,0.0,0.05844155844155844,0.0,0.0,0.0,0.05411255411255411,0.05844155844155844,0.05844155844155844,0.05194805194805195
S12_D10 hbo,0.0,0.0,0.0,0.0,0.0,0.0,0.0,0.0,0.0,0.0,0.0,0.0,0.0,0.0,0.0,0.0,0.0,0.0,0.0,0.0,0.0,0.0,0.0,0.0,0.0,0.0,0.0,0.0,0.0,0.0,0.0,0.0,0.0,0.0,0.0,0.0,0.0,0.0,0.0,0.0,0.0,0.0,0.0,0.0,0.0,0.0,0.0,0.0,0.0,0.0,0.0,0.0
S12_D12 hbo,0.0,0.0,0.0,0.0,0.0,0.0,0.0,0.0,0.0,0.0,0.0,0.0,0.0,0.0,0.0,0.0,0.0,0.0,0.0,0.0,0.0,0.0,0.0,0.0,0.0,0.0,0.0,0.0,0.0,0.0,0.0,0.0,0.0,0.0,0.0,0.0,0.0,0.0,0.0,0.0,0.0,0.0,0.0,0.0,0.0,0.0,0.0,0.0,0.0,0.0,0.0,0.0
S12_D14 hbo,0.0,0.0,0.0,0.0,0.0,0.0,0.0,0.0,0.0,0.0,0.0,0.0,0.0,0.0,0.0,0.0,0.0,0.0,0.0,0.0,0.0,0.0,0.0,0.0,0.0,0.0,0.0,0.0,0.0,0.0,0.0,0.0,0.0,0.0,0.0,0.0,0.0,0.0,0.0,0.0,0.0,0.0,0.0,0.0,0.0,0.0,0.0,0.0,0.0,0.0,0.0,0.0
S13_D6 hbo,0.0,0.0,0.0,0.0,0.0,0.0,0.021413276231263382,0.017130620985010708,0.0,0.0,0.05139186295503212,0.0021413276231263384,0.0,0.0,0.047109207708779445,0.057815845824411134,0.05353319057815846,0.0,0.055674518201284794,0.0,0.0,0.0,0.057815845824411134,0.04925053533190578,0.05139186295503212,0.057815845824411134,0.0,0.044967880085653104,0.01284796573875803,0.0,0.0,0.0,0.0,0.0,0.0,0.05139186295503212,0.0,0.0,0.0,0.055674518201284794,0.0,0.0,0.032119914346895075,0.0,0.05353319057815846,0.0,0.0,0.0,0.057815845824411134,0.057815845824411134,0.055674518201284794,0.055674518201284794
S13_D11 hbo,0.0,0.0,0.0,0.0,0.0,0.0,0.0,0.0,0.0,0.0,0.0,0.0,0.0,0.0,0.0,0.0,0.0,0.0,0.0,0.0,0.0,0.0,0.0,0.0,0.0,0.0,0.0,0.0,0.0,0.0,0.0,0.0,0.0,0.0,0.0,0.0,0.0,0.0,0.0,0.0,0.0,0.0,0.0,0.0,0.0,0.0,0.0,0.0,0.0,0.0,0.0,0.0
S13_D13 hbo,0.0,0.0,0.0,0.0,0.0,0.0,0.0,0.0,0.0,0.0,0.0,0.0,0.0,0.0,0.0,0.0,0.0,0.0,0.0,0.0,0.0,0.0,0.0,0.0,0.0,0.0,0.0,0.0,0.0,0.0,0.0,0.0,0.0,0.0,0.0,0.0,0.0,0.0,0.0,0.0,0.0,0.0,0.0,0.0,0.0,0.0,0.0,0.0,0.0,0.0,0.0,0.0
S13_D15 hbo,0.0,0.0,0.0,0.0,0.0,0.0,0.007067137809187279,0.028268551236749116,0.0,0.0,0.053003533568904596,0.0035335689045936395,0.0,0.0,0.04946996466431095,0.053003533568904596,0.053003533568904596,0.0,0.053003533568904596,0.0,0.0,0.0,0.053003533568904596,0.053003533568904596,0.053003533568904596,0.053003533568904596,0.0,0.045936395759717315,0.02120141342756184,0.0,0.0,0.0,0.0,0.0,0.0,0.053003533568904596,0.0,0.0,0.0,0.053003533568904596,0.0,0.0,0.04946996466431095,0.0,0.053003533568904596,0.0,0.0,0.0,0.053003533568904596,0.053003533568904596,0.053003533568904596,0.053003533568904596
S14_D12 hbo,0.0,0.0,0.0,0.0,0.0,0.0,0.0,0.0,0.0,0.0,0.0,0.0,0.0,0.0,0.0,0.0,0.0,0.0,0.0,0.0,0.0,0.0,0.0,0.0,0.0,0.0,0.0,0.0,0.0,0.0,0.0,0.0,0.0,0.0,0.0,0.0,0.0,0.0,0.0,0.0,0.0,0.0,0.0,0.0,0.0,0.0,0.0,0.0,0.0,0.0,0.0,0.0
S14_D13 hbo,0.0,0.0,0.0,0.0,0.0,0.0,0.028985507246376812,0.016563146997929608,0.0,0.0,0.047619047619047616,0.002070393374741201,0.0,0.0,0.045548654244306416,0.057971014492753624,0.049689440993788817,0.0,0.051759834368530024,0.0,0.0,0.0,0.055900621118012424,0.045548654244306416,0.049689440993788817,0.060041407867494824,0.0,0.047619047619047616,0.012422360248447204,0.0,0.0,0.0,0.0,0.0,0.0,0.055900621118012424,0.0,0.0,0.0,0.055900621118012424,0.0,0.0,0.031055900621118012,0.0,0.060041407867494824,0.0,0.0,0.0,0.053830227743271224,0.057971014492753624,0.062111801242236024,0.051759834368530024
S14_D14 hbo,0.0,0.0,0.0,0.0,0.0,0.0,0.0,0.0,0.0,0.0,0.0,0.0,0.0,0.0,0.0,0.0,0.0,0.0,0.0,0.0,0.0,0.0,0.0,0.0,0.0,0.0,0.0,0.0,0.0,0.0,0.0,0.0,0.0,0.0,0.0,0.0,0.0,0.0,0.0,0.0,0.0,0.0,0.0,0.0,0.0,0.0,0.0,0.0,0.0,0.0,0.0,0.0
S14_D16 hbo,0.0,0.0,0.0,0.0,0.0,0.0,0.0,0.0,0.0,0.0,0.0,0.0,0.0,0.0,0.0,0.0,0.0,0.0,0.0,0.0,0.0,0.0,0.0,0.0,0.0,0.0,0.0,0.0,0.0,0.0,0.0,0.0,0.0,0.0,0.0,0.0,0.0,0.0,0.0,0.0,0.0,0.0,0.0,0.0,0.0,0.0,0.0,0.0,0.0,0.0,0.0,0.0
S15_D13 hbo,0.0,0.0,0.0,0.0,0.0,0.0,0.0,0.0,0.0,0.0,0.0,0.0,0.0,0.0,0.0,0.0,0.0,0.0,0.0,0.0,0.0,0.0,0.0,0.0,0.0,0.0,0.0,0.0,0.0,0.0,0.0,0.0,0.0,0.0,0.0,0.0,0.0,0.0,0.0,0.0,0.0,0.0,0.0,0.0,0.0,0.0,0.0,0.0,0.0,0.0,0.0,0.0
S15_D15 hbo,0.0,0.0,0.0,0.0,0.0,0.0,0.019189765458422176,0.017057569296375266,0.0,0.0,0.0511727078891258,0.0021321961620469083,0.0,0.0,0.04477611940298507,0.05543710021321962,0.05970149253731343,0.0,0.05970149253731343,0.0,0.0,0.0,0.06183368869936034,0.0511727078891258,0.0511727078891258,0.05970149253731343,0.0,0.042643923240938165,0.01279317697228145,0.0,0.0,0.0,0.0,0.0,0.0,0.04904051172707889,0.0,0.0,0.0,0.053304904051172705,0.0,0.0,0.031982942430703626,0.0,0.0511727078891258,0.0,0.0,0.0,0.05970149253731343,0.057569296375266525,0.053304904051172705,0.05543710021321962
S15_D16 hbo,0.0,0.0,0.0,0.0,0.0,0.0,0.022494887525562373,0.016359918200409,0.0,0.0,0.049079754601226995,0.002044989775051125,0.0,0.0,0.044989775051124746,0.05725971370143149,0.05521472392638037,0.0,0.05725971370143149,0.0,0.0,0.0,0.06134969325153374,0.049079754601226995,0.049079754601226995,0.06134969325153374,0.0,0.044989775051124746,0.012269938650306749,0.0,0.0,0.0,0.0,0.0,0.0,0.05112474437627812,0.0,0.0,0.0,0.05521472392638037,0.0,0.0,0.03067484662576687,0.0,0.053169734151329244,0.0,0.0,0.0,0.05930470347648262,0.05930470347648262,0.05521472392638037,0.053169734151329244
S16_D14 hbo,0.0,0.0,0.0,0.0,0.0,0.0,0.028397565922920892,0.016227180527383367,0.0,0.0,0.0486815415821501,0.002028397565922921,0.0,0.0,0.04462474645030426,0.058823529411764705,0.05070993914807302,0.0,0.05273833671399594,0.0,0.0,0.0,0.056795131845841784,0.04665314401622718,0.0486815415821501,0.060851926977687626,0.0,0.04665314401622718,0.012170385395537525,0.0,0.0,0.0,0.0,0.0,0.0,0.05476673427991886,0.0,0.0,0.0,0.05476673427991886,0.0,0.0,0.030425963488843813,0.0,0.058823529411764705,0.0,0.0,0.0,0.05476673427991886,0.058823529411764705,0.060851926977687626,0.05273833671399594
S16_D16 hbo,0.0,0.0,0.0,0.0,0.0,0.0,0.017857142857142856,0.017857142857142856,0.0,0.0,0.05357142857142857,0.002232142857142857,0.0,0.0,0.044642857142857144,0.05580357142857143,0.05803571428571429,0.0,0.05803571428571429,0.0,0.0,0.0,0.05803571428571429,0.05357142857142857,0.05357142857142857,0.05803571428571429,0.0,0.04241071428571429,0.013392857142857142,0.0,0.0,0.0,0.0,0.0,0.0,0.049107142857142856,0.0,0.0,0.0,0.05357142857142857,0.0,0.0,0.033482142857142856,0.0,0.05133928571428571,0.0,0.0,0.0,0.05803571428571429,0.05803571428571429,0.05357142857142857,0.05580357142857143
