,S1_D1 hbo,S1_D3 hbo,S2_D1 hbo,S2_D2 hbo,S2_D4 hbo,S3_D1 hbo,S3_D3 hbo,S3_D4 hbo,S3_D5 hbo,S4_D2 hbo,S4_D4 hbo,S4_D6 hbo,S4_D11 hbo,S5_D3 hbo,S5_D5 hbo,S5_D7 hbo,S6_D4 hbo,S6_D5 hbo,S6_D6 hbo,S6_D8 hbo,S7_D5 hbo,S7_D7 hbo,S7_D8 hbo,S8_D6 hbo,S8_D8 hbo,S8_D15 hbo,S9_D2 hbo,S9_D9 hbo,S9_D11 hbo,S10_D9 hbo,S10_D10 hbo,S10_D12 hbo,S11_D9 hbo,S11_D11 hbo,S11_D12 hbo,S11_D13 hbo,S12_D10 hbo,S12_D12 hbo,S12_D14 hbo,S13_D6 hbo,S13_D11 hbo,S13_D13 hbo,S13_D15 hbo,S14_D12 hbo,S14_D13 hbo,S14_D14 hbo,S14_D16 hbo,S15_D13 hbo,S15_D15 hbo,S15_D16 hbo,S16_D14 hbo,S16_D16 hbo
S1_D1 hbo,0.02662490211433046,0.018794048551292093,0.025841816758026624,0.025058731401722788,0.018794048551292093,0.025841816758026624,0.025841816758026624,0.025058731401722788,0.025058731401722788,0.0,0.020360219263899765,0.00548159749412686,0.0,0.02662490211433046,0.022709475332811275,0.025058731401722788,0.020360219263899765,0.021143304620203602,0.023492560689115115,0.017227877838684416,0.02662490211433046,0.021143304620203602,0.01957713390759593,0.011746280344557557,0.02427564604541895,0.023492560689115115,0.01957713390759593,0.02427564604541895,0.01096319498825372,0.01957713390759593,0.02662490211433046,0.023492560689115115,0.0,0.0,0.010180109631949883,0.018010963194988253,0.025841816758026624,0.025841816758026624,0.025841816758026624,0.010180109631949883,0.0,0.014878621769772905,0.021143304620203602,0.022709475332811275,0.014095536413469069,0.025841816758026624,0.025058731401722788,0.011746280344557557,0.02427564604541895,0.022709475332811275,0.02662490211433046,0.02427564604541895
S1_D3 hbo,0.02201524132091448,0.024555461473327687,0.02286198137171888,0.02201524132091448,0.02286198137171888,0.02201524132091448,0.023708721422523286,0.02286198137171888,0.024555461473327687,0.0,0.024555461473327687,0.010160880609652836,0.0,0.02286198137171888,0.02540220152413209,0.024555461473327687,0.02540220152413209,0.026248941574936496,0.024555461473327687,0.023708721422523286,0.02201524132091448,0.02286198137171888,0.02201524132091448,0.01693480101608806,0.023708721422523286,0.02286198137171888,0.024555461473327687,0.021168501270110076,0.011854360711261643,0.02286198137171888,0.02286198137171888,0.02201524132091448,0.0,0.0,0.01100762066045724,0.02286198137171888,0.02032176121930567,0.021168501270110076,0.02201524132091448,0.01100762066045724,0.0,0.016088060965283656,0.02201524132091448,0.02201524132091448,0.017781541066892465,0.02286198137171888,0.01947502116850127,0.012701100762066046,0.02201524132091448,0.02286198137171888,0.02032176121930567,0.02286198137171888
S2_D1 hbo,0.02527075812274368,0.018050541516245487,0.025992779783393503,0.02454873646209386,0.020216606498194945,0.02454873646209386,0.02454873646209386,0.02527075812274368,0.02454873646209386,0.0021660649819494585,0.021660649819494584,0.007942238267148015,0.001444043321299639,0.025992779783393503,0.022382671480144403,0.023826714801444042,0.021660649819494584,0.022382671480144403,0.02454873646209386,0.018772563176895306,0.02527075812274368,0.020216606498194945,0.020938628158844765,0.013718411552346571,0.02527075812274368,0.023104693140794223,0.020216606498194945,0.023104693140794223,0.01227436823104693,0.020938628158844765,0.02527075812274368,0.02454873646209386,0.001444043321299639,0.001444043321299639,0.009386281588447653,0.018772563176895306,0.023826714801444042,0.02454873646209386,0.02454873646209386,0.011552346570397111,0.0007220216606498195,0.013718411552346571,0.022382671480144403,0.022382671480144403,0.01444043321299639,0.02454873646209386,0.023104693140794223,0.010830324909747292,0.023104693140794223,0.021660649819494584,0.023826714801444042,0.023104693140794223
S2_D2 hbo,0.024626865671641792,0.01791044776119403,0.026119402985074626,0.025373134328358207,0.019402985074626865,0.024626865671641792,0.024626865671641792,0.026119402985074626,0.024626865671641792,0.0014925373134328358,0.02164179104477612,0.006716417910447761,0.0014925373134328358,0.025373134328358207,0.023134328358208955,0.023880597014925373,0.020895522388059702,0.02164179104477612,0.023880597014925373,0.01791044776119403,0.024626865671641792,0.020149253731343283,0.020149253731343283,0.012686567164179104,0.024626865671641792,0.023134328358208955,0.020149253731343283,0.023880597014925373,0.011940298507462687,0.020149253731343283,0.024626865671641792,0.023880597014925373,0.0029850746268656717,0.0029850746268656717,0.009701492537313432,0.018656716417910446,0.024626865671641792,0.025373134328358207,0.024626865671641792,0.011940298507462687,0.002238805970149254,0.014179104477611941,0.023134328358208955,0.022388059701492536,0.014179104477611941,0.024626865671641792,0.023134328358208955,0.011194029850746268,0.023880597014925373,0.02164179104477612,0.023880597014925373,0.023134328358208955
S2_D4 hbo,0.020933977455716585,0.020933977455716585,0.023349436392914653,0.021739130434782608,0.026570048309178744,0.020933977455716585,0.021739130434782608,0.0249597423510467,0.02254428341384863,0.0024154589371980675,0.0249597423510467,0.00966183574879227,0.001610305958132045,0.02254428341384863,0.02254428341384863,0.021739130434782608,0.02576489533011272,0.0249597423510467,0.024154589371980676,0.0249597423510467,0.020933977455716585,0.021739130434782608,0.024154589371980676,0.01610305958132045,0.024154589371980676,0.02254428341384863,0.023349436392914653,0.020933977455716585,0.013687600644122383,0.0249597423510467,0.021739130434782608,0.023349436392914653,0.001610305958132045,0.004025764895330112,0.01288244766505636,0.02254428341384863,0.01932367149758454,0.021739130434782608,0.020933977455716585,0.013687600644122383,0.0008051529790660225,0.015297906602254429,0.023349436392914653,0.021739130434782608,0.016908212560386472,0.021739130434782608,0.018518518518518517,0.014492753623188406,0.020933977455716585,0.021739130434782608,0.01932367149758454,0.021739130434782608
S3_D1 hbo,0.02664576802507837,0.018808777429467086,0.02586206896551724,0.025078369905956112,0.018808777429467086,0.02586206896551724,0.02586206896551724,0.025078369905956112,0.025078369905956112,0.0,0.02037617554858934,0.0054858934169279,0.0,0.02664576802507837,0.022727272727272728,0.025078369905956112,0.02037617554858934,0.02115987460815047,0.023510971786833857,0.017241379310344827,0.02664576802507837,0.02115987460815047,0.019592476489028215,0.011755485893416929,0.024294670846394983,0.023510971786833857,0.019592476489028215,0.024294670846394983,0.0109717868338558,0.019592476489028215,0.02664576802507837,0.023510971786833857,0.0,0.0,0.01018808777429467,0.018025078369905956,0.02586206896551724,0.02586206896551724,0.02586206896551724,0.01018808777429467,0.0,0.014890282131661442,0.02115987460815047,0.022727272727272728,0.014106583072100314,0.02586206896551724,0.025078369905956112,0.011755485893416929,0.024294670846394983,0.022727272727272728,0.02586206896551724,0.024294670846394983
S3_D3 hbo,0.026119402985074626,0.019402985074626865,0.026119402985074626,0.024626865671641792,0.019402985074626865,0.025373134328358207,0.026119402985074626,0.025373134328358207,0.025373134328358207,0.0,0.020895522388059702,0.006716417910447761,0.0,0.026865671641791045,0.023134328358208955,0.025373134328358207,0.020895522388059702,0.02164179104477612,0.023880597014925373,0.01791044776119403,0.026119402985074626,0.02164179104477612,0.019402985074626865,0.012686567164179104,0.024626865671641792,0.023880597014925373,0.020149253731343283,0.023134328358208955,0.010447761194029851,0.020149253731343283,0.026865671641791045,0.023134328358208955,0.0,0.0,0.009701492537313432,0.018656716417910446,0.024626865671641792,0.024626865671641792,0.025373134328358207,0.009701492537313432,0.0,0.014179104477611941,0.020895522388059702,0.022388059701492536,0.014925373134328358,0.026119402985074626,0.023880597014925373,0.011194029850746268,0.023880597014925373,0.023134328358208955,0.024626865671641792,0.024626865671641792
S3_D4 hbo,0.024199288256227757,0.017793594306049824,0.025622775800711744,0.02491103202846975,0.021352313167259787,0.024199288256227757,0.024199288256227757,0.02704626334519573,0.024199288256227757,0.002135231316725979,0.02206405693950178,0.007829181494661922,0.0014234875444839859,0.02491103202846975,0.022775800711743774,0.023487544483985764,0.022775800711743774,0.02206405693950178,0.024199288256227757,0.020640569395017794,0.024199288256227757,0.0199288256227758,0.020640569395017794,0.013523131672597865,0.02491103202846975,0.022775800711743774,0.0199288256227758,0.022775800711743774,0.012099644128113879,0.021352313167259787,0.024199288256227757,0.024199288256227757,0.0028469750889679717,0.0028469750889679717,0.009252669039145907,0.019217081850533807,0.023487544483985764,0.02491103202846975,0.024199288256227757,0.012099644128113879,0.002135231316725979,0.013523131672597865,0.023487544483985764,0.02206405693950178,0.014234875444839857,0.024199288256227757,0.02206405693950178,0.010676156583629894,0.023487544483985764,0.021352313167259787,0.022775800711743774,0.022775800711743774
S3_D5 hbo,0.02418207681365576,0.019203413940256046,0.02631578947368421,0.02418207681365576,0.020625889046941678,0.02418207681365576,0.025604551920341393,0.025604551920341393,0.025604551920341393,0.001422475106685633,0.022048364153627313,0.008534850640113799,0.001422475106685633,0.025604551920341393,0.023470839260312945,0.024893314366998577,0.022048364153627313,0.02275960170697013,0.024893314366998577,0.019203413940256046,0.02418207681365576,0.020625889046941678,0.01991465149359886,0.01422475106685633,0.025604551920341393,0.023470839260312945,0.021337126600284494,0.02275960170697013,0.011379800853485065,0.020625889046941678,0.024893314366998577,0.023470839260312945,0.001422475106685633,0.001422475106685633,0.009246088193456615,0.01991465149359886,0.02275960170697013,0.02418207681365576,0.02418207681365576,0.010668563300142247,0.0007112375533428165,0.013513513513513514,0.021337126600284494,0.022048364153627313,0.015647226173541962,0.024893314366998577,0.022048364153627313,0.010668563300142247,0.02275960170697013,0.022048364153627313,0.02275960170697013,0.023470839260312945
S4_D2 hbo,0.0,0.0,0.014285714285714285,0.007142857142857143,0.02142857142857143,0.0,0.0,0.014285714285714285,0.007142857142857143,0.1357142857142857,0.02857142857142857,0.02142857142857143,0.10714285714285714,0.007142857142857143,0.007142857142857143,0.0,0.02142857142857143,0.02857142857142857,0.02142857142857143,0.02857142857142857,0.0,0.0,0.02857142857142857,0.02142857142857143,0.02142857142857143,0.007142857142857143,0.014285714285714285,0.007142857142857143,0.07142857142857142,0.02142857142857143,0.0,0.02142857142857143,0.014285714285714285,0.014285714285714285,0.0,0.014285714285714285,0.0,0.007142857142857143,0.0,0.10714285714285714,0.04285714285714286,0.07857142857142857,0.02142857142857143,0.007142857142857143,0.007142857142857143,0.0,0.0,0.0,0.0,0.0,0.0,0.0
S4_D4 hbo,0.0213089802130898,0.02054794520547945,0.02359208523592085,0.0228310502283105,0.0228310502283105,0.0213089802130898,0.0228310502283105,0.0243531202435312,0.02359208523592085,0.00228310502283105,0.0258751902587519,0.00989345509893455,0.0015220700152207,0.0228310502283105,0.0243531202435312,0.0228310502283105,0.0243531202435312,0.0258751902587519,0.02511415525114155,0.02207001522070015,0.0213089802130898,0.02207001522070015,0.0228310502283105,0.01598173515981735,0.02511415525114155,0.0228310502283105,0.0228310502283105,0.0213089802130898,0.01293759512937595,0.0228310502283105,0.02207001522070015,0.02359208523592085,0.0030441400304414,0.0030441400304414,0.00989345509893455,0.0213089802130898,0.02054794520547945,0.0213089802130898,0.0213089802130898,0.01445966514459665,0.00228310502283105,0.01445966514459665,0.02511415525114155,0.02207001522070015,0.0167427701674277,0.02207001522070015,0.01902587519025875,0.01141552511415525,0.02207001522070015,0.02207001522070015,0.0197869101978691,0.02207001522070015
S4_D6 hbo,0.016917293233082706,0.02631578947368421,0.022556390977443608,0.018796992481203006,0.02631578947368421,0.016917293233082706,0.020676691729323307,0.022556390977443608,0.02443609022556391,0.005639097744360902,0.03007518796992481,0.03195488721804511,0.0037593984962406013,0.020676691729323307,0.02819548872180451,0.022556390977443608,0.03195488721804511,0.03383458646616541,0.02819548872180451,0.03571428571428571,0.016917293233082706,0.018796992481203006,0.02443609022556391,0.03383458646616541,0.02631578947368421,0.020676691729323307,0.02631578947368421,0.016917293233082706,0.013157894736842105,0.02443609022556391,0.018796992481203006,0.022556390977443608,0.0037593984962406013,0.0037593984962406013,0.0037593984962406013,0.02631578947368421,0.013157894736842105,0.016917293233082706,0.016917293233082706,0.011278195488721804,0.0018796992481203006,0.009398496240601503,0.022556390977443608,0.018796992481203006,0.022556390977443608,0.018796992481203006,0.011278195488721804,0.0,0.016917293233082706,0.018796992481203006,0.013157894736842105,0.018796992481203006
S4_D11 hbo,0.0,0.0,0.015037593984962405,0.007518796992481203,0.022556390977443608,0.0,0.0,0.015037593984962405,0.007518796992481203,0.12781954887218044,0.022556390977443608,0.022556390977443608,0.11278195488721804,0.007518796992481203,0.007518796992481203,0.0,0.022556390977443608,0.022556390977443608,0.022556390977443608,0.022556390977443608,0.0,0.0,0.022556390977443608,0.022556390977443608,0.022556390977443608,0.007518796992481203,0.015037593984962405,0.007518796992481203,0.07518796992481203,0.022556390977443608,0.0,0.022556390977443608,0.015037593984962405,0.015037593984962405,0.0,0.015037593984962405,0.0,0.007518796992481203,0.0,0.10526315789473684,0.045112781954887216,0.08270676691729323,0.022556390977443608,0.007518796992481203,0.007518796992481203,0.0,0.0,0.0,0.0,0.0,0.0,0.0
S5_D3 hbo,0.025343953656770456,0.018102824040550327,0.02606806661839247,0.025343953656770456,0.01955104996379435,0.024619840695148443,0.024619840695148443,0.02606806661839247,0.024619840695148443,0.001448225923244026,0.02172338884866039,0.00724112961622013,0.001448225923244026,0.02606806661839247,0.023171614771904415,0.02389572773352643,0.020999275887038378,0.02172338884866039,0.02389572773352643,0.018102824040550327,0.025343953656770456,0.020275162925416364,0.020275162925416364,0.013034033309196235,0.024619840695148443,0.023171614771904415,0.020275162925416364,0.023171614771904415,0.011585807385952208,0.020275162925416364,0.025343953656770456,0.02389572773352643,0.002172338884866039,0.002172338884866039,0.00941346850108617,0.01882693700217234,0.024619840695148443,0.024619840695148443,0.024619840695148443,0.011585807385952208,0.001448225923244026,0.013758146270818247,0.022447501810282405,0.022447501810282405,0.01448225923244026,0.024619840695148443,0.023171614771904415,0.010861694424330196,0.02389572773352643,0.02172338884866039,0.024619840695148443,0.023171614771904415
S5_D5 hbo,0.022302158273381296,0.020863309352517987,0.02446043165467626,0.023741007194244605,0.020863309352517987,0.022302158273381296,0.023741007194244605,0.025179856115107913,0.025179856115107913,0.0014388489208633094,0.023741007194244605,0.010071942446043165,0.0014388489208633094,0.023741007194244605,0.025899280575539568,0.02446043165467626,0.023741007194244605,0.02446043165467626,0.025899280575539568,0.020863309352517987,0.022302158273381296,0.020863309352517987,0.02014388489208633,0.015827338129496403,0.025179856115107913,0.023741007194244605,0.022302158273381296,0.022302158273381296,0.011510791366906475,0.020863309352517987,0.02302158273381295,0.023741007194244605,0.0028776978417266188,0.0028776978417266188,0.00935251798561151,0.020863309352517987,0.02158273381294964,0.022302158273381296,0.022302158273381296,0.011510791366906475,0.002158273381294964,0.013669064748201438,0.02302158273381295,0.022302158273381296,0.015827338129496403,0.02302158273381295,0.02014388489208633,0.01079136690647482,0.02302158273381295,0.022302158273381296,0.020863309352517987,0.02302158273381295
S5_D7 hbo,0.024584237165582067,0.019522776572668113,0.026030368763557483,0.024584237165582067,0.02024584237165582,0.024584237165582067,0.026030368763557483,0.025307302964569775,0.026030368763557483,0.0007230657989877079,0.021691973969631236,0.007953723788864787,0.0007230657989877079,0.026030368763557483,0.02386117136659436,0.025307302964569775,0.021691973969631236,0.022415039768618944,0.024584237165582067,0.018799710773680405,0.024584237165582067,0.02096890817064353,0.019522776572668113,0.01373825018076645,0.025307302964569775,0.02386117136659436,0.02096890817064353,0.023138105567606652,0.010845986984815618,0.02024584237165582,0.025307302964569775,0.023138105567606652,0.0007230657989877079,0.0007230657989877079,0.009399855386840203,0.019522776572668113,0.023138105567606652,0.024584237165582067,0.024584237165582067,0.01012292118582791,0.0007230657989877079,0.01373825018076645,0.02096890817064353,0.022415039768618944,0.015907447577729574,0.025307302964569775,0.022415039768618944,0.010845986984815618,0.023138105567606652,0.022415039768618944,0.023138105567606652,0.02386117136659436
S6_D4 hbo,0.021052631578947368,0.02180451127819549,0.02330827067669173,0.02180451127819549,0.02406015037593985,0.021052631578947368,0.022556390977443608,0.02481203007518797,0.02406015037593985,0.002255639097744361,0.02556390977443609,0.011278195488721804,0.0015037593984962407,0.022556390977443608,0.02481203007518797,0.02330827067669173,0.02706766917293233,0.02706766917293233,0.02556390977443609,0.02556390977443609,0.021052631578947368,0.02180451127819549,0.022556390977443608,0.017293233082706767,0.02481203007518797,0.022556390977443608,0.02330827067669173,0.021052631578947368,0.012781954887218045,0.02330827067669173,0.02180451127819549,0.02330827067669173,0.0015037593984962407,0.0015037593984962407,0.009774436090225564,0.022556390977443608,0.019548872180451128,0.02180451127819549,0.021052631578947368,0.012781954887218045,0.0007518796992481203,0.014285714285714285,0.02330827067669173,0.02180451127819549,0.016541353383458645,0.02180451127819549,0.018796992481203006,0.011278195488721804,0.021052631578947368,0.02180451127819549,0.019548872180451128,0.02180451127819549
S6_D5 hbo,0.021386430678466076,0.021386430678466076,0.02359882005899705,0.022123893805309734,0.022861356932153392,0.021386430678466076,0.022861356932153392,0.024336283185840708,0.024336283185840708,0.0022123893805309734,0.025073746312684365,0.011061946902654867,0.0014749262536873156,0.022861356932153392,0.025073746312684365,0.02359882005899705,0.025811209439528023,0.028023598820058997,0.025811209439528023,0.024336283185840708,0.021386430678466076,0.021386430678466076,0.022123893805309734,0.01696165191740413,0.025073746312684365,0.022861356932153392,0.022861356932153392,0.021386430678466076,0.012536873156342183,0.022861356932153392,0.022123893805309734,0.02359882005899705,0.0014749262536873156,0.0014749262536873156,0.009587020648967551,0.022123893805309734,0.01991150442477876,0.022123893805309734,0.021386430678466076,0.01327433628318584,0.0007374631268436578,0.014011799410029498,0.022861356932153392,0.022123893805309734,0.016224188790560472,0.022123893805309734,0.019174041297935103,0.011061946902654867,0.021386430678466076,0.022123893805309734,0.01991150442477876,0.022123893805309734
S6_D6 hbo,0.02290622763063708,0.019327129563350035,0.025053686471009307,0.023622047244094488,0.021474588403722263,0.02290622763063708,0.024337866857551897,0.025053686471009307,0.025053686471009307,0.0021474588403722263,0.023622047244094488,0.009305654974946313,0.0014316392269148174,0.024337866857551897,0.023622047244094488,0.024337866857551897,0.02290622763063708,0.024337866857551897,0.025769506084466716,0.020758768790264854,0.02290622763063708,0.020758768790264854,0.021474588403722263,0.015032211882605583,0.026485325697924122,0.023622047244094488,0.021474588403722263,0.02290622763063708,0.012168933428775949,0.021474588403722263,0.023622047244094488,0.024337866857551897,0.0014316392269148174,0.0014316392269148174,0.009305654974946313,0.020042949176807445,0.021474588403722263,0.02290622763063708,0.02290622763063708,0.012168933428775949,0.0007158196134574087,0.013600572655690766,0.02219040801717967,0.02219040801717967,0.015748031496062992,0.023622047244094488,0.020758768790264854,0.010737294201861132,0.02290622763063708,0.02219040801717967,0.021474588403722263,0.023622047244094488
S6_D8 hbo,0.019656019656019656,0.02375102375102375,0.022113022113022112,0.020475020475020474,0.025389025389025387,0.019656019656019656,0.021294021294021293,0.02375102375102375,0.02293202293202293,0.002457002457002457,0.025389025389025387,0.013923013923013924,0.001638001638001638,0.021294021294021293,0.02457002457002457,0.022113022113022112,0.027846027846027847,0.028665028665028666,0.02457002457002457,0.04013104013104013,0.019656019656019656,0.020475020475020474,0.02293202293202293,0.020475020475020474,0.02375102375102375,0.021294021294021293,0.02375102375102375,0.019656019656019656,0.013923013923013924,0.02375102375102375,0.020475020475020474,0.022113022113022112,0.001638001638001638,0.001638001638001638,0.010647010647010647,0.02457002457002457,0.018018018018018018,0.020475020475020474,0.019656019656019656,0.014742014742014743,0.000819000819000819,0.015561015561015561,0.022113022113022112,0.020475020475020474,0.018018018018018018,0.020475020475020474,0.0171990171990172,0.011466011466011465,0.019656019656019656,0.020475020475020474,0.018018018018018018,0.020475020475020474
S7_D5 hbo,0.02662490211433046,0.018794048551292093,0.025841816758026624,0.025058731401722788,0.018794048551292093,0.025841816758026624,0.025841816758026624,0.025058731401722788,0.025058731401722788,0.0,0.020360219263899765,0.00548159749412686,0.0,0.02662490211433046,0.022709475332811275,0.025058731401722788,0.020360219263899765,0.021143304620203602,0.023492560689115115,0.017227877838684416,0.02662490211433046,0.021143304620203602,0.01957713390759593,0.011746280344557557,0.02427564604541895,0.023492560689115115,0.01957713390759593,0.02427564604541895,0.01096319498825372,0.01957713390759593,0.02662490211433046,0.023492560689115115,0.0,0.0,0.010180109631949883,0.018010963194988253,0.025841816758026624,0.025841816758026624,0.025841816758026624,0.010180109631949883,0.0,0.014878621769772905,0.021143304620203602,0.022709475332811275,0.014095536413469069,0.025841816758026624,0.025058731401722788,0.011746280344557557,0.02427564604541895,0.022709475332811275,0.02662490211433046,0.02427564604541895
S7_D7 hbo,0.02404643449419569,0.020729684908789386,0.02404643449419569,0.02404643449419569,0.020729684908789386,0.02404643449419569,0.02404643449419569,0.02404643449419569,0.02404643449419569,0.0,0.022388059701492536,0.006633499170812604,0.0,0.02404643449419569,0.02404643449419569,0.02404643449419569,0.022388059701492536,0.02404643449419569,0.02404643449419569,0.01990049751243781,0.02404643449419569,0.02321724709784411,0.02155887230514096,0.013266998341625208,0.02404643449419569,0.02404643449419569,0.02155887230514096,0.02321724709784411,0.011608623548922056,0.02155887230514096,0.02404643449419569,0.02404643449419569,0.0,0.0,0.01077943615257048,0.01990049751243781,0.022388059701492536,0.02321724709784411,0.02404643449419569,0.01077943615257048,0.0,0.015754560530679935,0.02321724709784411,0.02404643449419569,0.015754560530679935,0.02404643449419569,0.02155887230514096,0.012437810945273632,0.02404643449419569,0.02404643449419569,0.022388059701492536,0.02404643449419569
S7_D8 hbo,0.021885521885521887,0.020202020202020204,0.02356902356902357,0.022727272727272728,0.022727272727272728,0.021885521885521887,0.021885521885521887,0.02356902356902357,0.022727272727272728,0.0025252525252525255,0.025252525252525252,0.008417508417508417,0.0016835016835016834,0.022727272727272728,0.022727272727272728,0.021885521885521887,0.02441077441077441,0.025252525252525252,0.02441077441077441,0.021885521885521887,0.021885521885521887,0.021885521885521887,0.02441077441077441,0.015151515151515152,0.02441077441077441,0.022727272727272728,0.022727272727272728,0.022727272727272728,0.01430976430976431,0.02356902356902357,0.021885521885521887,0.02441077441077441,0.0016835016835016834,0.0016835016835016834,0.010942760942760943,0.021043771043771045,0.021043771043771045,0.022727272727272728,0.021885521885521887,0.015151515151515152,0.0008417508417508417,0.015993265993265993,0.02441077441077441,0.022727272727272728,0.015993265993265993,0.021885521885521887,0.020202020202020204,0.012626262626262626,0.021885521885521887,0.021885521885521887,0.021043771043771045,0.021885521885521887
S8_D6 hbo,0.01893095768374165,0.024498886414253896,0.022271714922048998,0.0200445434298441,0.024498886414253896,0.01893095768374165,0.021158129175946547,0.022271714922048998,0.02338530066815145,0.0033407572383073497,0.026726057906458798,0.01893095768374165,0.0022271714922048997,0.021158129175946547,0.025612472160356347,0.022271714922048998,0.02783964365256125,0.028953229398663696,0.025612472160356347,0.030066815144766147,0.01893095768374165,0.0200445434298441,0.02338530066815145,0.02783964365256125,0.024498886414253896,0.021158129175946547,0.024498886414253896,0.01893095768374165,0.01670378619153675,0.02338530066815145,0.0200445434298441,0.022271714922048998,0.0022271714922048997,0.0022271714922048997,0.011135857461024499,0.024498886414253896,0.01670378619153675,0.01893095768374165,0.01893095768374165,0.015590200445434299,0.0011135857461024498,0.014476614699331848,0.022271714922048998,0.0200445434298441,0.022271714922048998,0.0200445434298441,0.015590200445434299,0.0077951002227171495,0.01893095768374165,0.0200445434298441,0.01670378619153675,0.0200445434298441
S8_D8 hbo,0.023622047244094488,0.018611309949892626,0.025769506084466716,0.024337866857551897,0.020758768790264854,0.023622047244094488,0.024337866857551897,0.025769506084466716,0.025053686471009307,0.0021474588403722263,0.02290622763063708,0.008589835361488905,0.0014316392269148174,0.025053686471009307,0.02290622763063708,0.024337866857551897,0.02219040801717967,0.023622047244094488,0.025053686471009307,0.020042949176807445,0.023622047244094488,0.020758768790264854,0.021474588403722263,0.014316392269148175,0.025769506084466716,0.023622047244094488,0.020758768790264854,0.02290622763063708,0.012168933428775949,0.021474588403722263,0.024337866857551897,0.024337866857551897,0.0014316392269148174,0.0014316392269148174,0.009305654974946313,0.019327129563350035,0.02219040801717967,0.023622047244094488,0.023622047244094488,0.012168933428775949,0.0007158196134574087,0.013600572655690766,0.02219040801717967,0.02219040801717967,0.015032211882605583,0.024337866857551897,0.021474588403722263,0.010737294201861132,0.02290622763063708,0.02219040801717967,0.02219040801717967,0.023622047244094488
S8_D15 hbo,0.024024024024024024,0.01876876876876877,0.025525525525525526,0.024774774774774775,0.02027027027027027,0.024024024024024024,0.024024024024024024,0.025525525525525526,0.024774774774774775,0.0015015015015015015,0.02177177177177177,0.0075075075075075074,0.0015015015015015015,0.024774774774774775,0.023273273273273273,0.024024024024024024,0.02177177177177177,0.02252252252252252,0.024774774774774775,0.01876876876876877,0.024024024024024024,0.021021021021021023,0.021021021021021023,0.013513513513513514,0.025525525525525526,0.024024024024024024,0.021021021021021023,0.024024024024024024,0.012012012012012012,0.021021021021021023,0.024024024024024024,0.024774774774774775,0.0015015015015015015,0.0015015015015015015,0.00975975975975976,0.01951951951951952,0.02252252252252252,0.024024024024024024,0.024024024024024024,0.01126126126126126,0.0007507507507507507,0.014264264264264264,0.02252252252252252,0.023273273273273273,0.015015015015015015,0.024024024024024024,0.02177177177177177,0.01126126126126126,0.024024024024024024,0.02252252252252252,0.02252252252252252,0.024024024024024024
S9_D2 hbo,0.02119309262166405,0.02119309262166405,0.023547880690737835,0.022762951334379906,0.023547880690737835,0.02119309262166405,0.022762951334379906,0.02433281004709576,0.023547880690737835,0.002354788069073783,0.025902668759811617,0.01020408163265306,0.0015698587127158557,0.022762951334379906,0.02433281004709576,0.022762951334379906,0.02511773940345369,0.02511773940345369,0.02511773940345369,0.02197802197802198,0.02119309262166405,0.02197802197802198,0.022762951334379906,0.016483516483516484,0.02511773940345369,0.022762951334379906,0.023547880690737835,0.02119309262166405,0.013343799058084773,0.023547880690737835,0.02197802197802198,0.023547880690737835,0.002354788069073783,0.002354788069073783,0.01020408163265306,0.02197802197802198,0.02040816326530612,0.02119309262166405,0.02119309262166405,0.013343799058084773,0.0015698587127158557,0.014913657770800628,0.02433281004709576,0.02197802197802198,0.01726844583987441,0.02197802197802198,0.018838304552590265,0.011773940345368918,0.02197802197802198,0.02197802197802198,0.019623233908948195,0.02197802197802198
S9_D9 hbo,0.024351924587588374,0.018067556952081697,0.025923016496465043,0.02513747054202671,0.019638648860958365,0.024351924587588374,0.024351924587588374,0.025923016496465043,0.02513747054202671,0.0015710919088766694,0.021209740769835034,0.006284367635506678,0.0015710919088766694,0.02513747054202671,0.022780832678711706,0.024351924587588374,0.021209740769835034,0.02199528672427337,0.024351924587588374,0.018067556952081697,0.024351924587588374,0.0204241948153967,0.0204241948153967,0.012568735271013355,0.02513747054202671,0.02356637863315004,0.0204241948153967,0.024351924587588374,0.012568735271013355,0.0204241948153967,0.024351924587588374,0.024351924587588374,0.0015710919088766694,0.0015710919088766694,0.01021209740769835,0.018853102906520033,0.024351924587588374,0.02513747054202671,0.024351924587588374,0.01178318931657502,0.0007855459544383347,0.014925373134328358,0.02199528672427337,0.022780832678711706,0.014139827179890024,0.024351924587588374,0.02356637863315004,0.01178318931657502,0.02356637863315004,0.02199528672427337,0.024351924587588374,0.02356637863315004
S9_D11 hbo,0.018276762402088774,0.018276762402088774,0.020887728459530026,0.020887728459530026,0.022193211488250653,0.018276762402088774,0.018276762402088774,0.022193211488250653,0.0195822454308094,0.014360313315926894,0.024804177545691905,0.006527415143603133,0.013054830287206266,0.0195822454308094,0.020887728459530026,0.018276762402088774,0.022193211488250653,0.02349869451697128,0.022193211488250653,0.02349869451697128,0.018276762402088774,0.018276762402088774,0.02349869451697128,0.016971279373368148,0.022193211488250653,0.0195822454308094,0.020887728459530026,0.0195822454308094,0.030026109660574413,0.022193211488250653,0.018276762402088774,0.022193211488250653,0.0039164490861618795,0.0039164490861618795,0.016971279373368148,0.020887728459530026,0.0195822454308094,0.0195822454308094,0.018276762402088774,0.033942558746736295,0.009138381201044387,0.028720626631853787,0.02349869451697128,0.0195822454308094,0.018276762402088774,0.018276762402088774,0.018276762402088774,0.013054830287206266,0.0195822454308094,0.018276762402088774,0.018276762402088774,0.018276762402088774
S10_D9 hbo,0.02186234817813765,0.020242914979757085,0.02348178137651822,0.022672064777327937,0.024291497975708502,0.02186234817813765,0.02186234817813765,0.025101214574898785,0.022672064777327937,0.0024291497975708503,0.025101214574898785,0.008906882591093117,0.0016194331983805667,0.022672064777327937,0.022672064777327937,0.02186234817813765,0.025910931174089068,0.025101214574898785,0.024291497975708502,0.02348178137651822,0.02186234817813765,0.02186234817813765,0.024291497975708502,0.015384615384615385,0.024291497975708502,0.022672064777327937,0.022672064777327937,0.02186234817813765,0.013765182186234818,0.024291497975708502,0.02186234817813765,0.024291497975708502,0.0016194331983805667,0.0016194331983805667,0.010526315789473684,0.02186234817813765,0.020242914979757085,0.022672064777327937,0.02186234817813765,0.013765182186234818,0.0008097165991902834,0.015384615384615385,0.024291497975708502,0.022672064777327937,0.016194331983805668,0.02186234817813765,0.019433198380566803,0.012145748987854251,0.02186234817813765,0.02186234817813765,0.020242914979757085,0.02186234817813765
S10_D10 hbo,0.025983667409057165,0.01855976243504083,0.025983667409057165,0.025241276911655532,0.019302152932442463,0.025241276911655532,0.025241276911655532,0.025241276911655532,0.025241276911655532,0.0007423904974016332,0.020786933927245732,0.0066815144766146995,0.0007423904974016332,0.026726057906458798,0.02301410541945063,0.024498886414253896,0.020786933927245732,0.021529324424647365,0.023756495916852263,0.017817371937639197,0.025983667409057165,0.020786933927245732,0.0200445434298441,0.012620638455827766,0.024498886414253896,0.023756495916852263,0.0200445434298441,0.023756495916852263,0.011135857461024499,0.0200445434298441,0.025983667409057165,0.023756495916852263,0.0007423904974016332,0.0007423904974016332,0.009651076466221232,0.01855976243504083,0.024498886414253896,0.025241276911655532,0.025241276911655532,0.010393466963622866,0.0007423904974016332,0.014105419450631032,0.021529324424647365,0.02301410541945063,0.014847809948032665,0.025241276911655532,0.023756495916852263,0.011135857461024499,0.023756495916852263,0.022271714922048998,0.025241276911655532,0.023756495916852263
S10_D12 hbo,0.02343159486016629,0.018140589569160998,0.024943310657596373,0.02418745275888133,0.021164021164021163,0.02343159486016629,0.02343159486016629,0.025699168556311415,0.02418745275888133,0.0022675736961451248,0.022675736961451247,0.007558578987150416,0.0015117157974300832,0.02418745275888133,0.022675736961451247,0.02343159486016629,0.022675736961451247,0.02343159486016629,0.024943310657596373,0.02040816326530612,0.02343159486016629,0.02040816326530612,0.021919879062736205,0.013605442176870748,0.025699168556311415,0.02343159486016629,0.02040816326530612,0.02418745275888133,0.012849584278155708,0.021919879062736205,0.02343159486016629,0.024943310657596373,0.0015117157974300832,0.0015117157974300832,0.009826152683295541,0.019652305366591082,0.022675736961451247,0.024943310657596373,0.02343159486016629,0.012849584278155708,0.0007558578987150416,0.01436130007558579,0.022675736961451247,0.022675736961451247,0.01436130007558579,0.02343159486016629,0.021919879062736205,0.011337868480725623,0.02343159486016629,0.021919879062736205,0.022675736961451247,0.02343159486016629
S11_D9 hbo,0.0,0.0,0.018691588785046728,0.018691588785046728,0.028037383177570093,0.0,0.0,0.028037383177570093,0.009345794392523364,0.028037383177570093,0.037383177570093455,0.028037383177570093,0.018691588785046728,0.009345794392523364,0.018691588785046728,0.0,0.028037383177570093,0.028037383177570093,0.028037383177570093,0.028037383177570093,0.0,0.0,0.028037383177570093,0.028037383177570093,0.028037383177570093,0.009345794392523364,0.018691588785046728,0.009345794392523364,0.028037383177570093,0.028037383177570093,0.0,0.028037383177570093,0.22429906542056074,0.037383177570093455,0.0,0.018691588785046728,0.009345794392523364,0.009345794392523364,0.0,0.037383177570093455,0.028037383177570093,0.0,0.04672897196261682,0.009345794392523364,0.009345794392523364,0.0,0.0,0.0,0.009345794392523364,0.0,0.0,0.0
S11_D11 hbo,0.0,0.0,0.018518518518518517,0.018518518518518517,0.046296296296296294,0.0,0.0,0.027777777777777776,0.009259259259259259,0.027777777777777776,0.037037037037037035,0.027777777777777776,0.018518518518518517,0.009259259259259259,0.018518518518518517,0.0,0.027777777777777776,0.027777777777777776,0.027777777777777776,0.027777777777777776,0.0,0.0,0.027777777777777776,0.027777777777777776,0.027777777777777776,0.009259259259259259,0.018518518518518517,0.009259259259259259,0.027777777777777776,0.027777777777777776,0.0,0.027777777777777776,0.037037037037037035,0.1388888888888889,0.046296296296296294,0.018518518518518517,0.009259259259259259,0.009259259259259259,0.0,0.037037037037037035,0.027777777777777776,0.0,0.046296296296296294,0.009259259259259259,0.009259259259259259,0.0,0.0,0.027777777777777776,0.009259259259259259,0.0,0.0,0.0
S11_D12 hbo,0.018867924528301886,0.018867924528301886,0.020319303338171262,0.02177068214804064,0.023222060957910014,0.018867924528301886,0.018867924528301886,0.02177068214804064,0.020319303338171262,0.001451378809869376,0.02177068214804064,0.001451378809869376,0.001451378809869376,0.020319303338171262,0.02177068214804064,0.018867924528301886,0.020319303338171262,0.020319303338171262,0.020319303338171262,0.020319303338171262,0.018867924528301886,0.018867924528301886,0.020319303338171262,0.013062409288824383,0.020319303338171262,0.020319303338171262,0.020319303338171262,0.020319303338171262,0.01741654571843251,0.020319303338171262,0.018867924528301886,0.020319303338171262,0.002902757619738752,0.010159651669085631,0.05660377358490566,0.020319303338171262,0.020319303338171262,0.027576197387518143,0.018867924528301886,0.020319303338171262,0.011611030478955007,0.036284470246734396,0.02177068214804064,0.020319303338171262,0.01741654571843251,0.018867924528301886,0.018867924528301886,0.020319303338171262,0.020319303338171262,0.018867924528301886,0.018867924528301886,0.018867924528301886
S11_D13 hbo,0.020712510356255178,0.02236951118475559,0.0231980115990058,0.021541010770505385,0.026512013256006627,0.020712510356255178,0.02236951118475559,0.024855012427506214,0.0231980115990058,0.0024855012427506215,0.024855012427506214,0.010770505385252692,0.0016570008285004142,0.02236951118475559,0.0231980115990058,0.02236951118475559,0.026512013256006627,0.024855012427506214,0.024855012427506214,0.024855012427506214,0.020712510356255178,0.021541010770505385,0.0231980115990058,0.01739850869925435,0.024855012427506214,0.02236951118475559,0.024026512013256007,0.020712510356255178,0.014084507042253521,0.024855012427506214,0.021541010770505385,0.0231980115990058,0.0016570008285004142,0.0016570008285004142,0.010770505385252692,0.024026512013256007,0.019055509527754765,0.021541010770505385,0.020712510356255178,0.013256006628003313,0.0008285004142502071,0.015741507870753936,0.0231980115990058,0.021541010770505385,0.018227009113504555,0.021541010770505385,0.018227009113504555,0.012427506213753107,0.020712510356255178,0.021541010770505385,0.019055509527754765,0.021541010770505385
S12_D10 hbo,0.026402640264026403,0.018151815181518153,0.02557755775577558,0.02557755775577558,0.018151815181518153,0.02557755775577558,0.02557755775577558,0.02557755775577558,0.024752475247524754,0.0,0.020627062706270627,0.004125412541254125,0.0,0.026402640264026403,0.0231023102310231,0.024752475247524754,0.019801980198019802,0.020627062706270627,0.0231023102310231,0.0165016501650165,0.026402640264026403,0.020627062706270627,0.018976897689768978,0.010726072607260726,0.02392739273927393,0.0231023102310231,0.018976897689768978,0.02392739273927393,0.01155115511551155,0.018976897689768978,0.026402640264026403,0.0231023102310231,0.0016501650165016502,0.0016501650165016502,0.010726072607260726,0.017326732673267328,0.027227722772277228,0.02557755775577558,0.02557755775577558,0.01155115511551155,0.0016501650165016502,0.015676567656765675,0.022277227722772276,0.022277227722772276,0.013201320132013201,0.02557755775577558,0.026402640264026403,0.012376237623762377,0.024752475247524754,0.022277227722772276,0.027227722772277228,0.02392739273927393
S12_D12 hbo,0.024962178517397883,0.01739788199697428,0.025718608169440244,0.024205748865355523,0.02042360060514372,0.024205748865355523,0.024205748865355523,0.0264750378214826,0.024205748865355523,0.0015128593040847202,0.02042360060514372,0.006051437216338881,0.0015128593040847202,0.025718608169440244,0.02193645990922844,0.023449319213313162,0.02193645990922844,0.02118003025718608,0.023449319213313162,0.018910741301059002,0.024962178517397883,0.019667170953101363,0.019667170953101363,0.012102874432677761,0.024205748865355523,0.0226928895612708,0.019667170953101363,0.023449319213313162,0.012102874432677761,0.02042360060514372,0.024962178517397883,0.023449319213313162,0.0015128593040847202,0.0015128593040847202,0.012859304084720122,0.018910741301059002,0.024962178517397883,0.028744326777609682,0.024205748865355523,0.0113464447806354,0.0045385779122541605,0.018154311649016642,0.02118003025718608,0.02193645990922844,0.01361573373676248,0.024205748865355523,0.024205748865355523,0.0113464447806354,0.0226928895612708,0.02118003025718608,0.024962178517397883,0.0226928895612708
S12_D14 hbo,0.025757575757575757,0.01818181818181818,0.025757575757575757,0.025757575757575757,0.01893939393939394,0.025,0.025,0.025757575757575757,0.025,0.0007575757575757576,0.021212121212121213,0.006060606060606061,0.0007575757575757576,0.026515151515151516,0.023484848484848483,0.024242424242424242,0.020454545454545454,0.021212121212121213,0.023484848484848483,0.017424242424242425,0.025757575757575757,0.020454545454545454,0.019696969696969695,0.012121212121212121,0.024242424242424242,0.023484848484848483,0.019696969696969695,0.024242424242424242,0.011363636363636364,0.019696969696969695,0.025757575757575757,0.023484848484848483,0.0015151515151515152,0.0015151515151515152,0.009848484848484848,0.01818181818181818,0.025757575757575757,0.025757575757575757,0.025,0.011363636363636364,0.0015151515151515152,0.014393939393939395,0.02196969696969697,0.022727272727272728,0.014393939393939395,0.025,0.024242424242424242,0.011363636363636364,0.024242424242424242,0.02196969696969697,0.025,0.023484848484848483
S13_D6 hbo,0.017241379310344827,0.017241379310344827,0.01989389920424403,0.01989389920424403,0.021220159151193633,0.017241379310344827,0.017241379310344827,0.021220159151193633,0.01856763925729443,0.021220159151193633,0.023872679045092837,0.003978779840848806,0.01989389920424403,0.01856763925729443,0.01989389920424403,0.017241379310344827,0.021220159151193633,0.022546419098143235,0.021220159151193633,0.022546419098143235,0.017241379310344827,0.017241379310344827,0.022546419098143235,0.014588859416445624,0.021220159151193633,0.01856763925729443,0.01989389920424403,0.01856763925729443,0.029177718832891247,0.021220159151193633,0.017241379310344827,0.021220159151193633,0.005305039787798408,0.005305039787798408,0.015915119363395226,0.01989389920424403,0.01856763925729443,0.01856763925729443,0.017241379310344827,0.04509283819628647,0.017241379310344827,0.038461538461538464,0.023872679045092837,0.01856763925729443,0.015915119363395226,0.017241379310344827,0.017241379310344827,0.014588859416445624,0.01856763925729443,0.017241379310344827,0.017241379310344827,0.017241379310344827
S13_D11 hbo,0.0,0.0,0.013071895424836602,0.013071895424836602,0.013071895424836602,0.0,0.0,0.0196078431372549,0.006535947712418301,0.058823529411764705,0.0196078431372549,0.013071895424836602,0.058823529411764705,0.006535947712418301,0.013071895424836602,0.0,0.013071895424836602,0.013071895424836602,0.013071895424836602,0.013071895424836602,0.0,0.0,0.013071895424836602,0.013071895424836602,0.013071895424836602,0.006535947712418301,0.013071895424836602,0.006535947712418301,0.058823529411764705,0.013071895424836602,0.0,0.013071895424836602,0.026143790849673203,0.026143790849673203,0.026143790849673203,0.013071895424836602,0.006535947712418301,0.032679738562091505,0.0,0.09803921568627451,0.1568627450980392,0.13071895424836602,0.026143790849673203,0.006535947712418301,0.006535947712418301,0.0,0.0,0.0,0.006535947712418301,0.0,0.0,0.0
S13_D13 hbo,0.019916142557651992,0.019916142557651992,0.019916142557651992,0.019916142557651992,0.019916142557651992,0.019916142557651992,0.019916142557651992,0.019916142557651992,0.019916142557651992,0.013626834381551363,0.019916142557651992,0.0031446540880503146,0.013626834381551363,0.019916142557651992,0.019916142557651992,0.019916142557651992,0.019916142557651992,0.019916142557651992,0.019916142557651992,0.018867924528301886,0.019916142557651992,0.019916142557651992,0.019916142557651992,0.011530398322851153,0.019916142557651992,0.019916142557651992,0.019916142557651992,0.019916142557651992,0.023060796645702306,0.019916142557651992,0.019916142557651992,0.019916142557651992,0.0,0.0,0.02410901467505241,0.019916142557651992,0.019916142557651992,0.025157232704402517,0.019916142557651992,0.03039832285115304,0.018867924528301886,0.051362683438155136,0.019916142557651992,0.019916142557651992,0.014675052410901468,0.019916142557651992,0.019916142557651992,0.014675052410901468,0.019916142557651992,0.019916142557651992,0.019916142557651992,0.019916142557651992
S13_D15 hbo,0.022204599524187154,0.0190325138778747,0.023790642347343377,0.023790642347343377,0.02141157811260904,0.022204599524187154,0.022204599524187154,0.02458366375892149,0.022997620935765267,0.0023790642347343376,0.02458366375892149,0.007930214115781126,0.0015860428231562252,0.022997620935765267,0.023790642347343377,0.022204599524187154,0.022997620935765267,0.025376685170499604,0.02458366375892149,0.02141157811260904,0.022204599524187154,0.02141157811260904,0.022997620935765267,0.014274385408406027,0.02458366375892149,0.022997620935765267,0.02141157811260904,0.022997620935765267,0.013481363996827915,0.022204599524187154,0.022204599524187154,0.02458366375892149,0.0031720856463124504,0.0031720856463124504,0.010309278350515464,0.019825535289452814,0.022204599524187154,0.022997620935765267,0.022204599524187154,0.014274385408406027,0.0023790642347343376,0.01506740681998414,0.025376685170499604,0.022997620935765267,0.01506740681998414,0.022204599524187154,0.020618556701030927,0.011895321173671689,0.022997620935765267,0.022204599524187154,0.02141157811260904,0.022204599524187154
S14_D12 hbo,0.0234192037470726,0.01873536299765808,0.02498048399687744,0.02419984387197502,0.02107728337236534,0.0234192037470726,0.0234192037470726,0.02576112412177986,0.02419984387197502,0.00156128024980484,0.02185792349726776,0.00702576112412178,0.00156128024980484,0.02419984387197502,0.0234192037470726,0.0234192037470726,0.02263856362217018,0.02263856362217018,0.02498048399687744,0.0195160031225605,0.0234192037470726,0.02107728337236534,0.02107728337236534,0.01327088212334114,0.02498048399687744,0.02419984387197502,0.02107728337236534,0.02419984387197502,0.01249024199843872,0.02185792349726776,0.0234192037470726,0.02498048399687744,0.00156128024980484,0.00156128024980484,0.01014832162373146,0.02029664324746292,0.02263856362217018,0.02498048399687744,0.0234192037470726,0.0117096018735363,0.00078064012490242,0.01483216237314598,0.02263856362217018,0.0234192037470726,0.01483216237314598,0.0234192037470726,0.02185792349726776,0.0117096018735363,0.0234192037470726,0.02263856362217018,0.02263856362217018,0.0234192037470726
S14_D13 hbo,0.020682523267838676,0.02171664943123061,0.023784901758014478,0.02171664943123061,0.02481902792140641,0.020682523267838676,0.02171664943123061,0.023784901758014478,0.022750775594622543,0.002068252326783868,0.023784901758014478,0.011375387797311272,0.002068252326783868,0.022750775594622543,0.022750775594622543,0.02171664943123061,0.023784901758014478,0.023784901758014478,0.023784901758014478,0.023784901758014478,0.020682523267838676,0.02171664943123061,0.022750775594622543,0.01964839710444674,0.023784901758014478,0.022750775594622543,0.023784901758014478,0.020682523267838676,0.016546018614270942,0.023784901758014478,0.02171664943123061,0.022750775594622543,0.002068252326783868,0.0031023784901758012,0.014477766287487074,0.023784901758014478,0.01861427094105481,0.020682523267838676,0.020682523267838676,0.015511892450879007,0.001034126163391934,0.016546018614270942,0.022750775594622543,0.02171664943123061,0.02171664943123061,0.02171664943123061,0.017580144777662874,0.011375387797311272,0.020682523267838676,0.02171664943123061,0.01861427094105481,0.02171664943123061
S14_D14 hbo,0.026656511805026657,0.01904036557501904,0.025894897182025894,0.02513328255902513,0.01904036557501904,0.025894897182025894,0.025894897182025894,0.02513328255902513,0.02513328255902513,0.0,0.020563594821020565,0.006092916984006093,0.0,0.026656511805026657,0.02284843869002285,0.02513328255902513,0.020563594821020565,0.021325209444021324,0.02361005331302361,0.017517136329017517,0.026656511805026657,0.021325209444021324,0.019801980198019802,0.012185833968012186,0.024371667936024372,0.02361005331302361,0.019801980198019802,0.02361005331302361,0.010662604722010662,0.019801980198019802,0.026656511805026657,0.02361005331302361,0.0,0.0,0.009900990099009901,0.01827875095201828,0.02513328255902513,0.02513328255902513,0.025894897182025894,0.009900990099009901,0.0,0.014470677837014471,0.021325209444021324,0.02284843869002285,0.014470677837014471,0.025894897182025894,0.024371667936024372,0.011424219345011425,0.024371667936024372,0.02284843869002285,0.02513328255902513,0.024371667936024372
S14_D16 hbo,0.025833333333333333,0.0175,0.025,0.024166666666666666,0.0175,0.025,0.025,0.024166666666666666,0.024166666666666666,0.0,0.019166666666666665,0.0033333333333333335,0.0,0.025833333333333333,0.021666666666666667,0.024166666666666666,0.019166666666666665,0.02,0.0225,0.015833333333333335,0.025833333333333333,0.02,0.018333333333333333,0.01,0.023333333333333334,0.0225,0.018333333333333333,0.023333333333333334,0.011666666666666667,0.018333333333333333,0.025833333333333333,0.0225,0.0,0.0,0.010833333333333334,0.016666666666666666,0.025833333333333333,0.025,0.025,0.010833333333333334,0.0,0.015833333333333335,0.02,0.021666666666666667,0.0125,0.025,0.03916666666666667,0.0225,0.023333333333333334,0.021666666666666667,0.04083333333333333,0.023333333333333334
S15_D13 hbo,0.02112676056338028,0.01971830985915493,0.02112676056338028,0.02112676056338028,0.022535211267605635,0.02112676056338028,0.02112676056338028,0.02112676056338028,0.02112676056338028,0.0,0.02112676056338028,0.0,0.0,0.02112676056338028,0.02112676056338028,0.02112676056338028,0.02112676056338028,0.02112676056338028,0.02112676056338028,0.016901408450704224,0.02112676056338028,0.02112676056338028,0.02112676056338028,0.007042253521126761,0.02112676056338028,0.02112676056338028,0.02112676056338028,0.02112676056338028,0.011267605633802818,0.02112676056338028,0.02112676056338028,0.02112676056338028,0.0,0.005633802816901409,0.018309859154929577,0.018309859154929577,0.02112676056338028,0.02112676056338028,0.02112676056338028,0.01267605633802817,0.0,0.016901408450704224,0.02112676056338028,0.02112676056338028,0.011267605633802818,0.02112676056338028,0.03943661971830986,0.06338028169014084,0.02112676056338028,0.02112676056338028,0.03943661971830986,0.02112676056338028
S15_D15 hbo,0.025177025963808025,0.01888276947285602,0.025177025963808025,0.025963808025177025,0.01888276947285602,0.025177025963808025,0.025177025963808025,0.025963808025177025,0.025177025963808025,0.0,0.021243115656963022,0.0055074744295830055,0.0,0.025177025963808025,0.023603461841070025,0.025177025963808025,0.020456333595594022,0.021243115656963022,0.023603461841070025,0.01730920535011802,0.025177025963808025,0.021243115656963022,0.01966955153422502,0.011801730920535013,0.024390243902439025,0.023603461841070025,0.01966955153422502,0.024390243902439025,0.011014948859166011,0.01966955153422502,0.025177025963808025,0.023603461841070025,0.0015735641227380016,0.0015735641227380016,0.010228166797797011,0.01809598741148702,0.025177025963808025,0.025177025963808025,0.025177025963808025,0.011014948859166011,0.0015735641227380016,0.014948859166011016,0.022816679779701022,0.022816679779701022,0.014162077104642014,0.025177025963808025,0.023603461841070025,0.011801730920535013,0.025177025963808025,0.022816679779701022,0.024390243902439025,0.024390243902439025
S15_D16 hbo,0.024031007751937984,0.01937984496124031,0.024806201550387597,0.024806201550387597,0.020155038759689922,0.024031007751937984,0.024031007751937984,0.024806201550387597,0.024806201550387597,0.0007751937984496124,0.021705426356589147,0.0069767441860465115,0.0007751937984496124,0.024806201550387597,0.024031007751937984,0.024031007751937984,0.021705426356589147,0.023255813953488372,0.024806201550387597,0.01937984496124031,0.024031007751937984,0.021705426356589147,0.020930232558139535,0.01317829457364341,0.024806201550387597,0.024806201550387597,0.020930232558139535,0.024031007751937984,0.011627906976744186,0.020930232558139535,0.024031007751937984,0.024806201550387597,0.0007751937984496124,0.0007751937984496124,0.010077519379844961,0.01937984496124031,0.02248062015503876,0.024031007751937984,0.024031007751937984,0.010852713178294573,0.0007751937984496124,0.014728682170542635,0.02248062015503876,0.024031007751937984,0.015503875968992248,0.024031007751937984,0.021705426356589147,0.011627906976744186,0.024031007751937984,0.023255813953488372,0.02248062015503876,0.024031007751937984
S16_D14 hbo,0.025559105431309903,0.01757188498402556,0.02476038338658147,0.023961661341853034,0.01757188498402556,0.02476038338658147,0.02476038338658147,0.023961661341853034,0.023961661341853034,0.0,0.019169329073482427,0.003993610223642172,0.0,0.025559105431309903,0.02156549520766773,0.023961661341853034,0.019169329073482427,0.019968051118210862,0.022364217252396165,0.01597444089456869,0.025559105431309903,0.019968051118210862,0.018370607028753993,0.010383386581469648,0.0231629392971246,0.022364217252396165,0.018370607028753993,0.0231629392971246,0.011182108626198083,0.018370607028753993,0.025559105431309903,0.022364217252396165,0.0,0.0,0.010383386581469648,0.016773162939297124,0.025559105431309903,0.02476038338658147,0.02476038338658147,0.010383386581469648,0.0,0.015175718849840255,0.019968051118210862,0.02156549520766773,0.012779552715654952,0.02476038338658147,0.03913738019169329,0.022364217252396165,0.0231629392971246,0.02156549520766773,0.0463258785942492,0.0231629392971246
S16_D16 hbo,0.025522041763341066,0.019334880123743233,0.025522041763341066,0.025522041763341066,0.019334880123743233,0.025522041763341066,0.025522041763341066,0.025522041763341066,0.025522041763341066,0.0,0.02088167053364269,0.006187161639597835,0.0,0.025522041763341066,0.02320185614849188,0.025522041763341066,0.02088167053364269,0.02165506573859242,0.02397525135344161,0.017788089713843776,0.025522041763341066,0.02165506573859242,0.020108275328692964,0.01237432327919567,0.02474864655839134,0.02397525135344161,0.020108275328692964,0.02397525135344161,0.01082753286929621,0.020108275328692964,0.025522041763341066,0.02397525135344161,0.0,0.0,0.010054137664346482,0.018561484918793503,0.02397525135344161,0.02474864655839134,0.025522041763341066,0.010054137664346482,0.0,0.014694508894044857,0.02165506573859242,0.02320185614849188,0.014694508894044857,0.025522041763341066,0.02320185614849188,0.01160092807424594,0.02474864655839134,0.02320185614849188,0.02397525135344161,0.02474864655839134
