,S1_D1 hbo,S1_D3 hbo,S2_D1 hbo,S2_D2 hbo,S2_D4 hbo,S3_D1 hbo,S3_D3 hbo,S3_D4 hbo,S3_D5 hbo,S4_D2 hbo,S4_D4 hbo,S4_D6 hbo,S4_D11 hbo,S5_D3 hbo,S5_D5 hbo,S5_D7 hbo,S6_D4 hbo,S6_D5 hbo,S6_D6 hbo,S6_D8 hbo,S7_D5 hbo,S7_D7 hbo,S7_D8 hbo,S8_D6 hbo,S8_D8 hbo,S8_D15 hbo,S9_D2 hbo,S9_D9 hbo,S9_D11 hbo,S10_D9 hbo,S10_D10 hbo,S10_D12 hbo,S11_D9 hbo,S11_D11 hbo,S11_D12 hbo,S11_D13 hbo,S12_D10 hbo,S12_D12 hbo,S12_D14 hbo,S13_D6 hbo,S13_D11 hbo,S13_D13 hbo,S13_D15 hbo,S14_D12 hbo,S14_D13 hbo,S14_D14 hbo,S14_D16 hbo,S15_D13 hbo,S15_D15 hbo,S15_D16 hbo,S16_D14 hbo,S16_D16 hbo
S1_D1 hbo,0.0,0.0,0.0,0.0,0.0,0.0,0.0,0.0,0.0,0.0,0.0,0.0,0.0,0.0,0.0,0.0,0.0,0.0,0.0,0.0,0.0,0.0,0.0,0.0,0.0,0.0,0.0,0.0,0.0,0.0,0.0,0.0,0.0,0.0,0.0,0.0,0.0,0.0,0.0,0.0,0.0,0.0,0.0,0.0,0.0,0.0,0.0,0.0,0.0,0.0,0.0,0.0
S1_D3 hbo,0.0,0.0,0.0,0.0,0.0,0.0,0.0,0.0,0.0,0.0,0.0,0.0,0.0,0.0,0.0,0.0,0.0,0.0,0.0,0.0,0.0,0.0,0.0,0.0,0.0,0.0,0.0,0.0,0.0,0.0,0.0,0.0,0.0,0.0,0.0,0.0,0.0,0.0,0.0,0.0,0.0,0.0,0.0,0.0,0.0,0.0,0.0,0.0,0.0,0.0,0.0,0.0
S2_D1 hbo,0.0,0.0,0.03629976580796253,0.03161592505854801,0.0351288056206089,0.0,0.0,0.03278688524590164,0.03278688524590164,0.03629976580796253,0.02927400468384075,0.03747072599531616,0.03629976580796253,0.0,0.03629976580796253,0.03278688524590164,0.0351288056206089,0.03747072599531616,0.03747072599531616,0.03747072599531616,0.03395784543325527,0.0351288056206089,0.03747072599531616,0.03747072599531616,0.03747072599531616,0.03747072599531616,0.0351288056206089,0.03044496487119438,0.00351288056206089,0.0,0.0,0.0,0.0,0.0,0.0,0.0,0.0,0.0,0.0,0.03747072599531616,0.03747072599531616,0.03161592505854801,0.03629976580796253,0.0,0.0,0.0,0.0,0.0117096018735363,0.03278688524590164,0.0,0.0,0.0
S2_D2 hbo,0.0,0.0,0.03368176538908246,0.03484320557491289,0.036004645760743324,0.0,0.0,0.036004645760743324,0.036004645760743324,0.03484320557491289,0.032520325203252036,0.03368176538908246,0.036004645760743324,0.0,0.036004645760743324,0.03484320557491289,0.036004645760743324,0.036004645760743324,0.036004645760743324,0.036004645760743324,0.036004645760743324,0.036004645760743324,0.036004645760743324,0.03484320557491289,0.036004645760743324,0.036004645760743324,0.036004645760743324,0.032520325203252036,0.003484320557491289,0.0,0.0,0.0,0.0,0.0,0.0,0.0,0.0,0.0,0.0,0.036004645760743324,0.036004645760743324,0.03484320557491289,0.03368176538908246,0.0,0.0,0.0,0.0,0.011614401858304297,0.032520325203252036,0.0,0.0,0.0
S2_D4 hbo,0.0,0.0,0.03347280334728033,0.032426778242677826,0.038702928870292884,0.0,0.0,0.036610878661087864,0.032426778242677826,0.034518828451882845,0.029288702928870293,0.03347280334728033,0.03765690376569038,0.0,0.0397489539748954,0.03138075313807531,0.038702928870292884,0.0397489539748954,0.036610878661087864,0.038702928870292884,0.03347280334728033,0.03556485355648536,0.0397489539748954,0.034518828451882845,0.03765690376569038,0.03556485355648536,0.03556485355648536,0.029288702928870293,0.0031380753138075313,0.0,0.0,0.0,0.0,0.0,0.0,0.0,0.0,0.0,0.0,0.03556485355648536,0.0397489539748954,0.03347280334728033,0.03347280334728033,0.0,0.0,0.0,0.0,0.010460251046025104,0.029288702928870293,0.0,0.0,0.0
S3_D1 hbo,0.0,0.0,0.0,0.0,0.0,0.0,0.0,0.0,0.0,0.0,0.0,0.0,0.0,0.0,0.0,0.0,0.0,0.0,0.0,0.0,0.0,0.0,0.0,0.0,0.0,0.0,0.0,0.0,0.0,0.0,0.0,0.0,0.0,0.0,0.0,0.0,0.0,0.0,0.0,0.0,0.0,0.0,0.0,0.0,0.0,0.0,0.0,0.0,0.0,0.0,0.0,0.0
S3_D3 hbo,0.0,0.0,0.0,0.0,0.0,0.0,0.0,0.0,0.0,0.0,0.0,0.0,0.0,0.0,0.0,0.0,0.0,0.0,0.0,0.0,0.0,0.0,0.0,0.0,0.0,0.0,0.0,0.0,0.0,0.0,0.0,0.0,0.0,0.0,0.0,0.0,0.0,0.0,0.0,0.0,0.0,0.0,0.0,0.0,0.0,0.0,0.0,0.0,0.0,0.0,0.0,0.0
S3_D4 hbo,0.0,0.0,0.03278688524590164,0.033879781420765025,0.03825136612021858,0.0,0.0,0.03715846994535519,0.033879781420765025,0.033879781420765025,0.030601092896174863,0.03278688524590164,0.03715846994535519,0.0,0.03825136612021858,0.03278688524590164,0.03825136612021858,0.03825136612021858,0.036065573770491806,0.03825136612021858,0.034972677595628415,0.036065573770491806,0.03825136612021858,0.033879781420765025,0.03715846994535519,0.034972677595628415,0.036065573770491806,0.030601092896174863,0.003278688524590164,0.0,0.0,0.0,0.0,0.0,0.0,0.0,0.0,0.0,0.0,0.034972677595628415,0.03825136612021858,0.034972677595628415,0.03278688524590164,0.0,0.0,0.0,0.0,0.01092896174863388,0.030601092896174863,0.0,0.0,0.0
S3_D5 hbo,0.0,0.0,0.03484320557491289,0.03368176538908246,0.036004645760743324,0.0,0.0,0.03484320557491289,0.03484320557491289,0.036004645760743324,0.0313588850174216,0.03484320557491289,0.036004645760743324,0.0,0.036004645760743324,0.03484320557491289,0.036004645760743324,0.036004645760743324,0.036004645760743324,0.036004645760743324,0.036004645760743324,0.036004645760743324,0.036004645760743324,0.036004645760743324,0.036004645760743324,0.036004645760743324,0.036004645760743324,0.032520325203252036,0.003484320557491289,0.0,0.0,0.0,0.0,0.0,0.0,0.0,0.0,0.0,0.0,0.036004645760743324,0.036004645760743324,0.03368176538908246,0.03484320557491289,0.0,0.0,0.0,0.0,0.011614401858304297,0.032520325203252036,0.0,0.0,0.0
S4_D2 hbo,0.0,0.0,0.036322360953461974,0.03178206583427923,0.03518728717366629,0.0,0.0,0.032917139614074914,0.032917139614074914,0.036322360953461974,0.029511918274687854,0.03745743473325766,0.036322360953461974,0.0,0.036322360953461974,0.032917139614074914,0.03518728717366629,0.03745743473325766,0.03745743473325766,0.03745743473325766,0.0340522133938706,0.03518728717366629,0.03745743473325766,0.03745743473325766,0.03745743473325766,0.03745743473325766,0.03518728717366629,0.03064699205448354,0.00340522133938706,0.0,0.0,0.0,0.0,0.0,0.0,0.0,0.0,0.0,0.0,0.03745743473325766,0.03745743473325766,0.03178206583427923,0.036322360953461974,0.0,0.0,0.0,0.0,0.011350737797956867,0.03178206583427923,0.0,0.0,0.0
S4_D4 hbo,0.0,0.0,0.03413400758533502,0.035398230088495575,0.035398230088495575,0.0,0.0,0.035398230088495575,0.035398230088495575,0.035398230088495575,0.03413400758533502,0.03413400758533502,0.035398230088495575,0.0,0.035398230088495575,0.035398230088495575,0.035398230088495575,0.035398230088495575,0.035398230088495575,0.035398230088495575,0.035398230088495575,0.035398230088495575,0.035398230088495575,0.035398230088495575,0.035398230088495575,0.035398230088495575,0.035398230088495575,0.035398230088495575,0.0037926675094816687,0.0,0.0,0.0,0.0,0.0,0.0,0.0,0.0,0.0,0.0,0.035398230088495575,0.035398230088495575,0.035398230088495575,0.03413400758533502,0.0,0.0,0.0,0.0,0.012642225031605562,0.03286978508217446,0.0,0.0,0.0
S4_D6 hbo,0.0,0.0,0.03538812785388128,0.030821917808219176,0.03424657534246575,0.0,0.0,0.0319634703196347,0.0319634703196347,0.03538812785388128,0.028538812785388126,0.03881278538812785,0.03538812785388128,0.0,0.03538812785388128,0.0319634703196347,0.03424657534246575,0.03767123287671233,0.03995433789954338,0.03995433789954338,0.033105022831050226,0.03424657534246575,0.03995433789954338,0.03995433789954338,0.03995433789954338,0.03995433789954338,0.03424657534246575,0.02968036529680365,0.003424657534246575,0.0,0.0,0.0,0.0,0.0,0.0,0.0,0.0,0.0,0.0,0.03767123287671233,0.0365296803652968,0.030821917808219176,0.03538812785388128,0.0,0.0,0.0,0.0,0.01141552511415525,0.0319634703196347,0.0,0.0,0.0
S4_D11 hbo,0.0,0.0,0.03404255319148936,0.03297872340425532,0.036170212765957444,0.0,0.0,0.03404255319148936,0.03297872340425532,0.035106382978723406,0.029787234042553193,0.035106382978723406,0.03723404255319149,0.0,0.03723404255319149,0.031914893617021274,0.036170212765957444,0.03829787234042553,0.03829787234042553,0.03829787234042553,0.03404255319148936,0.036170212765957444,0.03829787234042553,0.036170212765957444,0.03829787234042553,0.03723404255319149,0.036170212765957444,0.029787234042553193,0.0031914893617021275,0.0,0.0,0.0,0.0,0.0,0.0,0.0,0.0,0.0,0.0,0.03723404255319149,0.03829787234042553,0.03297872340425532,0.03404255319148936,0.0,0.0,0.0,0.0,0.010638297872340425,0.029787234042553193,0.0,0.0,0.0
S5_D3 hbo,0.0,0.0,0.0,0.0,0.0,0.0,0.0,0.0,0.0,0.0,0.0,0.0,0.0,0.0,0.0,0.0,0.0,0.0,0.0,0.0,0.0,0.0,0.0,0.0,0.0,0.0,0.0,0.0,0.0,0.0,0.0,0.0,0.0,0.0,0.0,0.0,0.0,0.0,0.0,0.0,0.0,0.0,0.0,0.0,0.0,0.0,0.0,0.0,0.0,0.0,0.0,0.0
S5_D5 hbo,0.0,0.0,0.03336809176225235,0.03232533889468196,0.03753910323253389,0.0,0.0,0.035453597497393116,0.03232533889468196,0.03441084462982273,0.029197080291970802,0.03441084462982273,0.03753910323253389,0.0,0.03858185610010428,0.03128258602711158,0.03753910323253389,0.03962460896767466,0.03753910323253389,0.03962460896767466,0.03336809176225235,0.035453597497393116,0.03962460896767466,0.035453597497393116,0.03858185610010428,0.0364963503649635,0.035453597497393116,0.029197080291970802,0.0031282586027111575,0.0,0.0,0.0,0.0,0.0,0.0,0.0,0.0,0.0,0.0,0.0364963503649635,0.03962460896767466,0.03336809176225235,0.03336809176225235,0.0,0.0,0.0,0.0,0.010427528675703858,0.029197080291970802,0.0,0.0,0.0
S5_D7 hbo,0.0,0.0,0.035842293906810034,0.03345280764635603,0.035842293906810034,0.0,0.0,0.03464755077658303,0.03464755077658303,0.035842293906810034,0.03106332138590203,0.035842293906810034,0.035842293906810034,0.0,0.035842293906810034,0.03464755077658303,0.035842293906810034,0.035842293906810034,0.035842293906810034,0.035842293906810034,0.035842293906810034,0.035842293906810034,0.035842293906810034,0.035842293906810034,0.035842293906810034,0.035842293906810034,0.035842293906810034,0.03225806451612903,0.0035842293906810036,0.0,0.0,0.0,0.0,0.0,0.0,0.0,0.0,0.0,0.0,0.035842293906810034,0.035842293906810034,0.03345280764635603,0.035842293906810034,0.0,0.0,0.0,0.0,0.011947431302270013,0.03345280764635603,0.0,0.0,0.0
S6_D4 hbo,0.0,0.0,0.03371970495258166,0.032665964172813484,0.037934668071654375,0.0,0.0,0.03582718651211802,0.032665964172813484,0.03477344573234984,0.029504741833508957,0.03371970495258166,0.037934668071654375,0.0,0.03898840885142255,0.03161222339304531,0.037934668071654375,0.03898840885142255,0.0368809272918862,0.03898840885142255,0.03371970495258166,0.03582718651211802,0.03898840885142255,0.03477344573234984,0.037934668071654375,0.03582718651211802,0.03582718651211802,0.029504741833508957,0.003161222339304531,0.0,0.0,0.0,0.0,0.0,0.0,0.0,0.0,0.0,0.0,0.03582718651211802,0.03898840885142255,0.03371970495258166,0.03371970495258166,0.0,0.0,0.0,0.0,0.01053740779768177,0.029504741833508957,0.0,0.0,0.0
S6_D5 hbo,0.0,0.0,0.032520325203252036,0.031504065040650404,0.03861788617886179,0.0,0.0,0.03556910569105691,0.031504065040650404,0.03353658536585366,0.028455284552845527,0.03556910569105691,0.036585365853658534,0.0,0.03861788617886179,0.03048780487804878,0.037601626016260166,0.041666666666666664,0.03861788617886179,0.04065040650406504,0.032520325203252036,0.034552845528455285,0.041666666666666664,0.036585365853658534,0.039634146341463415,0.037601626016260166,0.034552845528455285,0.028455284552845527,0.003048780487804878,0.0,0.0,0.0,0.0,0.0,0.0,0.0,0.0,0.0,0.0,0.036585365853658534,0.039634146341463415,0.032520325203252036,0.032520325203252036,0.0,0.0,0.0,0.0,0.01016260162601626,0.028455284552845527,0.0,0.0,0.0
S6_D6 hbo,0.0,0.0,0.033542976939203356,0.031446540880503145,0.03459119496855346,0.0,0.0,0.03249475890985325,0.03249475890985325,0.03459119496855346,0.029350104821802937,0.03668763102725367,0.03563941299790356,0.0,0.03563941299790356,0.031446540880503145,0.03459119496855346,0.03773584905660377,0.040880503144654086,0.039832285115303984,0.033542976939203356,0.03459119496855346,0.041928721174004195,0.040880503144654086,0.041928721174004195,0.039832285115303984,0.03459119496855346,0.029350104821802937,0.0031446540880503146,0.0,0.0,0.0,0.0,0.0,0.0,0.0,0.0,0.0,0.0,0.03773584905660377,0.03668763102725367,0.031446540880503145,0.033542976939203356,0.0,0.0,0.0,0.0,0.010482180293501049,0.029350104821802937,0.0,0.0,0.0
S6_D8 hbo,0.0,0.0,0.032753326509723645,0.03172978505629478,0.03582395087001024,0.0,0.0,0.033776867963152504,0.03172978505629478,0.033776867963152504,0.028659160696008188,0.03582395087001024,0.0368474923234391,0.0,0.0368474923234391,0.030706243602865915,0.03582395087001024,0.038894575230296824,0.04094165813715456,0.04094165813715456,0.032753326509723645,0.03480040941658137,0.04196519959058342,0.038894575230296824,0.04196519959058342,0.038894575230296824,0.03480040941658137,0.028659160696008188,0.0030706243602865915,0.0,0.0,0.0,0.0,0.0,0.0,0.0,0.0,0.0,0.0,0.0368474923234391,0.037871033776867964,0.032753326509723645,0.032753326509723645,0.0,0.0,0.0,0.0,0.01023541453428864,0.028659160696008188,0.0,0.0,0.0
S7_D5 hbo,0.0,0.0,0.035227272727272725,0.03295454545454545,0.03636363636363636,0.0,0.0,0.03409090909090909,0.03409090909090909,0.03636363636363636,0.03068181818181818,0.035227272727272725,0.03636363636363636,0.0,0.03636363636363636,0.03409090909090909,0.03636363636363636,0.03636363636363636,0.03636363636363636,0.03636363636363636,0.035227272727272725,0.03636363636363636,0.03636363636363636,0.03636363636363636,0.03636363636363636,0.03636363636363636,0.03636363636363636,0.031818181818181815,0.003409090909090909,0.0,0.0,0.0,0.0,0.0,0.0,0.0,0.0,0.0,0.0,0.03636363636363636,0.03636363636363636,0.03295454545454545,0.035227272727272725,0.0,0.0,0.0,0.0,0.011363636363636364,0.031818181818181815,0.0,0.0,0.0
S7_D7 hbo,0.0,0.0,0.034972677595628415,0.03278688524590164,0.036065573770491806,0.0,0.0,0.033879781420765025,0.033879781420765025,0.036065573770491806,0.030601092896174863,0.034972677595628415,0.03715846994535519,0.0,0.03715846994535519,0.03278688524590164,0.036065573770491806,0.03715846994535519,0.03715846994535519,0.03715846994535519,0.034972677595628415,0.036065573770491806,0.03715846994535519,0.036065573770491806,0.03715846994535519,0.03715846994535519,0.036065573770491806,0.030601092896174863,0.003278688524590164,0.0,0.0,0.0,0.0,0.0,0.0,0.0,0.0,0.0,0.0,0.03715846994535519,0.03715846994535519,0.03278688524590164,0.034972677595628415,0.0,0.0,0.0,0.0,0.01092896174863388,0.030601092896174863,0.0,0.0,0.0
S7_D8 hbo,0.0,0.0,0.032355915065722954,0.03134479271991911,0.03640040444893832,0.0,0.0,0.034378159757330634,0.03134479271991911,0.033367037411526794,0.028311425682507583,0.03538928210313448,0.03640040444893832,0.0,0.03741152679474216,0.030333670374115267,0.03640040444893832,0.03943377148634985,0.04044489383215369,0.041456016177957536,0.032355915065722954,0.034378159757330634,0.043478260869565216,0.04044489383215369,0.042467138523761376,0.03842264914054601,0.034378159757330634,0.028311425682507583,0.003033367037411527,0.0,0.0,0.0,0.0,0.0,0.0,0.0,0.0,0.0,0.0,0.03640040444893832,0.03842264914054601,0.032355915065722954,0.032355915065722954,0.0,0.0,0.0,0.0,0.010111223458038422,0.028311425682507583,0.0,0.0,0.0
S8_D6 hbo,0.0,0.0,0.03512623490669594,0.030735455543358946,0.03402854006586169,0.0,0.0,0.031833150384193196,0.031833150384193196,0.03512623490669594,0.02854006586169045,0.038419319429198684,0.03512623490669594,0.0,0.03512623490669594,0.031833150384193196,0.03402854006586169,0.03732162458836443,0.04061470911086718,0.03951701427003293,0.03293084522502744,0.03402854006586169,0.04171240395170143,0.042810098792535674,0.04171240395170143,0.03951701427003293,0.03402854006586169,0.029637760702524697,0.003293084522502744,0.0,0.0,0.0,0.0,0.0,0.0,0.0,0.0,0.0,0.0,0.03732162458836443,0.036223929747530186,0.030735455543358946,0.03512623490669594,0.0,0.0,0.0,0.0,0.010976948408342482,0.030735455543358946,0.0,0.0,0.0
S8_D8 hbo,0.0,0.0,0.032989690721649485,0.031958762886597936,0.03505154639175258,0.0,0.0,0.032989690721649485,0.031958762886597936,0.03402061855670103,0.0288659793814433,0.03608247422680412,0.03608247422680412,0.0,0.03608247422680412,0.030927835051546393,0.03505154639175258,0.03814432989690722,0.041237113402061855,0.04020618556701031,0.032989690721649485,0.03505154639175258,0.042268041237113405,0.041237113402061855,0.042268041237113405,0.03917525773195876,0.03505154639175258,0.0288659793814433,0.003092783505154639,0.0,0.0,0.0,0.0,0.0,0.0,0.0,0.0,0.0,0.0,0.03711340206185567,0.03711340206185567,0.031958762886597936,0.032989690721649485,0.0,0.0,0.0,0.0,0.010309278350515464,0.0288659793814433,0.0,0.0,0.0
S8_D15 hbo,0.0,0.0,0.034371643394199784,0.031149301825993556,0.034371643394199784,0.0,0.0,0.0322234156820623,0.0322234156820623,0.03544575725026853,0.02900107411385607,0.03759398496240601,0.03544575725026853,0.0,0.03544575725026853,0.0322234156820623,0.034371643394199784,0.03759398496240601,0.04081632653061224,0.0397422126745435,0.03329752953813104,0.034371643394199784,0.04081632653061224,0.04081632653061224,0.04081632653061224,0.0397422126745435,0.034371643394199784,0.03007518796992481,0.00322234156820623,0.0,0.0,0.0,0.0,0.0,0.0,0.0,0.0,0.0,0.0,0.03759398496240601,0.036519871106337275,0.031149301825993556,0.034371643394199784,0.0,0.0,0.0,0.0,0.010741138560687433,0.03007518796992481,0.0,0.0,0.0
S9_D2 hbo,0.0,0.0,0.034972677595628415,0.03278688524590164,0.036065573770491806,0.0,0.0,0.033879781420765025,0.033879781420765025,0.036065573770491806,0.030601092896174863,0.034972677595628415,0.03715846994535519,0.0,0.03715846994535519,0.03278688524590164,0.036065573770491806,0.03715846994535519,0.03715846994535519,0.03715846994535519,0.034972677595628415,0.036065573770491806,0.03715846994535519,0.036065573770491806,0.03715846994535519,0.03715846994535519,0.036065573770491806,0.030601092896174863,0.003278688524590164,0.0,0.0,0.0,0.0,0.0,0.0,0.0,0.0,0.0,0.0,0.03715846994535519,0.03715846994535519,0.03278688524590164,0.034972677595628415,0.0,0.0,0.0,0.0,0.01092896174863388,0.030601092896174863,0.0,0.0,0.0
S9_D9 hbo,0.0,0.0,0.03530895334174023,0.03530895334174023,0.03530895334174023,0.0,0.0,0.03530895334174023,0.03530895334174023,0.03530895334174023,0.03278688524590164,0.03530895334174023,0.03530895334174023,0.0,0.03530895334174023,0.03530895334174023,0.03530895334174023,0.03530895334174023,0.03530895334174023,0.03530895334174023,0.03530895334174023,0.03530895334174023,0.03530895334174023,0.03530895334174023,0.03530895334174023,0.03530895334174023,0.03530895334174023,0.034047919293820936,0.0037831021437578815,0.0,0.0,0.0,0.0,0.0,0.0,0.0,0.0,0.0,0.0,0.03530895334174023,0.03530895334174023,0.03530895334174023,0.03530895334174023,0.0,0.0,0.0,0.0,0.012610340479192938,0.034047919293820936,0.0,0.0,0.0
S9_D11 hbo,0.0,0.0,0.033707865168539325,0.033707865168539325,0.033707865168539325,0.0,0.0,0.033707865168539325,0.033707865168539325,0.033707865168539325,0.033707865168539325,0.033707865168539325,0.033707865168539325,0.0,0.033707865168539325,0.033707865168539325,0.033707865168539325,0.033707865168539325,0.033707865168539325,0.033707865168539325,0.033707865168539325,0.033707865168539325,0.033707865168539325,0.033707865168539325,0.033707865168539325,0.033707865168539325,0.033707865168539325,0.033707865168539325,0.02247191011235955,0.0,0.0,0.0,0.0,0.0,0.0,0.0,0.0,0.0,0.0,0.033707865168539325,0.033707865168539325,0.033707865168539325,0.033707865168539325,0.0,0.0,0.0,0.0,0.033707865168539325,0.033707865168539325,0.0,0.0,0.0
S10_D9 hbo,0.0,0.0,0.0,0.0,0.0,0.0,0.0,0.0,0.0,0.0,0.0,0.0,0.0,0.0,0.0,0.0,0.0,0.0,0.0,0.0,0.0,0.0,0.0,0.0,0.0,0.0,0.0,0.0,0.0,0.0,0.0,0.0,0.0,0.0,0.0,0.0,0.0,0.0,0.0,0.0,0.0,0.0,0.0,0.0,0.0,0.0,0.0,0.0,0.0,0.0,0.0,0.0
S10_D10 hbo,0.0,0.0,0.0,0.0,0.0,0.0,0.0,0.0,0.0,0.0,0.0,0.0,0.0,0.0,0.0,0.0,0.0,0.0,0.0,0.0,0.0,0.0,0.0,0.0,0.0,0.0,0.0,0.0,0.0,0.0,0.0,0.0,0.0,0.0,0.0,0.0,0.0,0.0,0.0,0.0,0.0,0.0,0.0,0.0,0.0,0.0,0.0,0.0,0.0,0.0,0.0,0.0
S10_D12 hbo,0.0,0.0,0.0,0.0,0.0,0.0,0.0,0.0,0.0,0.0,0.0,0.0,0.0,0.0,0.0,0.0,0.0,0.0,0.0,0.0,0.0,0.0,0.0,0.0,0.0,0.0,0.0,0.0,0.0,0.0,0.0,0.0,0.0,0.0,0.0,0.0,0.0,0.0,0.0,0.0,0.0,0.0,0.0,0.0,0.0,0.0,0.0,0.0,0.0,0.0,0.0,0.0
S11_D9 hbo,0.0,0.0,0.0,0.0,0.0,0.0,0.0,0.0,0.0,0.0,0.0,0.0,0.0,0.0,0.0,0.0,0.0,0.0,0.0,0.0,0.0,0.0,0.0,0.0,0.0,0.0,0.0,0.0,0.0,0.0,0.0,0.0,0.0,0.0,0.0,0.0,0.0,0.0,0.0,0.0,0.0,0.0,0.0,0.0,0.0,0.0,0.0,0.0,0.0,0.0,0.0,0.0
S11_D11 hbo,0.0,0.0,0.0,0.0,0.0,0.0,0.0,0.0,0.0,0.0,0.0,0.0,0.0,0.0,0.0,0.0,0.0,0.0,0.0,0.0,0.0,0.0,0.0,0.0,0.0,0.0,0.0,0.0,0.0,0.0,0.0,0.0,0.0,0.0,0.0,0.0,0.0,0.0,0.0,0.0,0.0,0.0,0.0,0.0,0.0,0.0,0.0,0.0,0.0,0.0,0.0,0.0
S11_D12 hbo,0.0,0.0,0.0,0.0,0.0,0.0,0.0,0.0,0.0,0.0,0.0,0.0,0.0,0.0,0.0,0.0,0.0,0.0,0.0,0.0,0.0,0.0,0.0,0.0,0.0,0.0,0.0,0.0,0.0,0.0,0.0,0.0,0.0,0.0,0.0,0.0,0.0,0.0,0.0,0.0,0.0,0.0,0.0,0.0,0.0,0.0,0.0,0.0,0.0,0.0,0.0,0.0
S11_D13 hbo,0.0,0.0,0.0,0.0,0.0,0.0,0.0,0.0,0.0,0.0,0.0,0.0,0.0,0.0,0.0,0.0,0.0,0.0,0.0,0.0,0.0,0.0,0.0,0.0,0.0,0.0,0.0,0.0,0.0,0.0,0.0,0.0,0.0,0.0,0.0,0.0,0.0,0.0,0.0,0.0,0.0,0.0,0.0,0.0,0.0,0.0,0.0,0.0,0.0,0.0,0.0,0.0
S12_D10 hbo,0.0,0.0,0.0,0.0,0.0,0.0,0.0,0.0,0.0,0.0,0.0,0.0,0.0,0.0,0.0,0.0,0.0,0.0,0.0,0.0,0.0,0.0,0.0,0.0,0.0,0.0,0.0,0.0,0.0,0.0,0.0,0.0,0.0,0.0,0.0,0.0,0.0,0.0,0.0,0.0,0.0,0.0,0.0,0.0,0.0,0.0,0.0,0.0,0.0,0.0,0.0,0.0
S12_D12 hbo,0.0,0.0,0.0,0.0,0.0,0.0,0.0,0.0,0.0,0.0,0.0,0.0,0.0,0.0,0.0,0.0,0.0,0.0,0.0,0.0,0.0,0.0,0.0,0.0,0.0,0.0,0.0,0.0,0.0,0.0,0.0,0.0,0.0,0.0,0.0,0.0,0.0,0.0,0.0,0.0,0.0,0.0,0.0,0.0,0.0,0.0,0.0,0.0,0.0,0.0,0.0,0.0
S12_D14 hbo,0.0,0.0,0.0,0.0,0.0,0.0,0.0,0.0,0.0,0.0,0.0,0.0,0.0,0.0,0.0,0.0,0.0,0.0,0.0,0.0,0.0,0.0,0.0,0.0,0.0,0.0,0.0,0.0,0.0,0.0,0.0,0.0,0.0,0.0,0.0,0.0,0.0,0.0,0.0,0.0,0.0,0.0,0.0,0.0,0.0,0.0,0.0,0.0,0.0,0.0,0.0,0.0
S13_D6 hbo,0.0,0.0,0.03474484256243214,0.031487513572204126,0.03474484256243214,0.0,0.0,0.03257328990228013,0.03257328990228013,0.035830618892508145,0.029315960912052116,0.038002171552660155,0.035830618892508145,0.0,0.035830618892508145,0.03257328990228013,0.03474484256243214,0.038002171552660155,0.03908794788273615,0.03908794788273615,0.033659066232356136,0.03474484256243214,0.03908794788273615,0.03908794788273615,0.03908794788273615,0.03908794788273615,0.03474484256243214,0.03040173724212812,0.003257328990228013,0.0,0.0,0.0,0.0,0.0,0.0,0.0,0.0,0.0,0.0,0.038002171552660155,0.03691639522258415,0.031487513572204126,0.03474484256243214,0.0,0.0,0.0,0.0,0.010857763300760043,0.03040173724212812,0.0,0.0,0.0
S13_D11 hbo,0.0,0.0,0.03305785123966942,0.03202479338842975,0.0371900826446281,0.0,0.0,0.03512396694214876,0.03202479338842975,0.03409090909090909,0.028925619834710745,0.03512396694214876,0.0371900826446281,0.0,0.038223140495867766,0.030991735537190084,0.0371900826446281,0.040289256198347105,0.038223140495867766,0.040289256198347105,0.03305785123966942,0.03512396694214876,0.040289256198347105,0.03615702479338843,0.03925619834710744,0.0371900826446281,0.03512396694214876,0.028925619834710745,0.0030991735537190084,0.0,0.0,0.0,0.0,0.0,0.0,0.0,0.0,0.0,0.0,0.0371900826446281,0.03925619834710744,0.03305785123966942,0.03305785123966942,0.0,0.0,0.0,0.0,0.010330578512396695,0.028925619834710745,0.0,0.0,0.0
S13_D13 hbo,0.0,0.0,0.033105022831050226,0.03538812785388128,0.0365296803652968,0.0,0.0,0.0365296803652968,0.03538812785388128,0.03424657534246575,0.0319634703196347,0.033105022831050226,0.0365296803652968,0.0,0.0365296803652968,0.03424657534246575,0.0365296803652968,0.0365296803652968,0.0365296803652968,0.0365296803652968,0.03538812785388128,0.0365296803652968,0.0365296803652968,0.03424657534246575,0.0365296803652968,0.03538812785388128,0.0365296803652968,0.0319634703196347,0.003424657534246575,0.0,0.0,0.0,0.0,0.0,0.0,0.0,0.0,0.0,0.0,0.03538812785388128,0.0365296803652968,0.03538812785388128,0.033105022831050226,0.0,0.0,0.0,0.0,0.01141552511415525,0.0319634703196347,0.0,0.0,0.0
S13_D15 hbo,0.0,0.0,0.03629976580796253,0.03161592505854801,0.0351288056206089,0.0,0.0,0.03278688524590164,0.03278688524590164,0.03629976580796253,0.02927400468384075,0.03747072599531616,0.03629976580796253,0.0,0.03629976580796253,0.03278688524590164,0.0351288056206089,0.03747072599531616,0.03747072599531616,0.03747072599531616,0.03395784543325527,0.0351288056206089,0.03747072599531616,0.03747072599531616,0.03747072599531616,0.03747072599531616,0.0351288056206089,0.03044496487119438,0.00351288056206089,0.0,0.0,0.0,0.0,0.0,0.0,0.0,0.0,0.0,0.0,0.03747072599531616,0.03747072599531616,0.03161592505854801,0.03629976580796253,0.0,0.0,0.0,0.0,0.0117096018735363,0.03278688524590164,0.0,0.0,0.0
S14_D12 hbo,0.0,0.0,0.0,0.0,0.0,0.0,0.0,0.0,0.0,0.0,0.0,0.0,0.0,0.0,0.0,0.0,0.0,0.0,0.0,0.0,0.0,0.0,0.0,0.0,0.0,0.0,0.0,0.0,0.0,0.0,0.0,0.0,0.0,0.0,0.0,0.0,0.0,0.0,0.0,0.0,0.0,0.0,0.0,0.0,0.0,0.0,0.0,0.0,0.0,0.0,0.0,0.0
S14_D13 hbo,0.0,0.0,0.0,0.0,0.0,0.0,0.0,0.0,0.0,0.0,0.0,0.0,0.0,0.0,0.0,0.0,0.0,0.0,0.0,0.0,0.0,0.0,0.0,0.0,0.0,0.0,0.0,0.0,0.0,0.0,0.0,0.0,0.0,0.0,0.0,0.0,0.0,0.0,0.0,0.0,0.0,0.0,0.0,0.0,0.0,0.0,0.0,0.0,0.0,0.0,0.0,0.0
S14_D14 hbo,0.0,0.0,0.0,0.0,0.0,0.0,0.0,0.0,0.0,0.0,0.0,0.0,0.0,0.0,0.0,0.0,0.0,0.0,0.0,0.0,0.0,0.0,0.0,0.0,0.0,0.0,0.0,0.0,0.0,0.0,0.0,0.0,0.0,0.0,0.0,0.0,0.0,0.0,0.0,0.0,0.0,0.0,0.0,0.0,0.0,0.0,0.0,0.0,0.0,0.0,0.0,0.0
S14_D16 hbo,0.0,0.0,0.0,0.0,0.0,0.0,0.0,0.0,0.0,0.0,0.0,0.0,0.0,0.0,0.0,0.0,0.0,0.0,0.0,0.0,0.0,0.0,0.0,0.0,0.0,0.0,0.0,0.0,0.0,0.0,0.0,0.0,0.0,0.0,0.0,0.0,0.0,0.0,0.0,0.0,0.0,0.0,0.0,0.0,0.0,0.0,0.0,0.0,0.0,0.0,0.0,0.0
S15_D13 hbo,0.0,0.0,0.03424657534246575,0.03424657534246575,0.03424657534246575,0.0,0.0,0.03424657534246575,0.03424657534246575,0.03424657534246575,0.03424657534246575,0.03424657534246575,0.03424657534246575,0.0,0.03424657534246575,0.03424657534246575,0.03424657534246575,0.03424657534246575,0.03424657534246575,0.03424657534246575,0.03424657534246575,0.03424657534246575,0.03424657534246575,0.03424657534246575,0.03424657534246575,0.03424657534246575,0.03424657534246575,0.03424657534246575,0.010273972602739725,0.0,0.0,0.0,0.0,0.0,0.0,0.0,0.0,0.0,0.0,0.03424657534246575,0.03424657534246575,0.03424657534246575,0.03424657534246575,0.0,0.0,0.0,0.0,0.030821917808219176,0.03424657534246575,0.0,0.0,0.0
S15_D15 hbo,0.0,0.0,0.03580562659846547,0.03324808184143223,0.03580562659846547,0.0,0.0,0.034526854219948847,0.034526854219948847,0.03580562659846547,0.030690537084398978,0.03580562659846547,0.03580562659846547,0.0,0.03580562659846547,0.034526854219948847,0.03580562659846547,0.03580562659846547,0.03580562659846547,0.03580562659846547,0.03580562659846547,0.03580562659846547,0.03580562659846547,0.03580562659846547,0.03580562659846547,0.03580562659846547,0.03580562659846547,0.0319693094629156,0.0038363171355498722,0.0,0.0,0.0,0.0,0.0,0.0,0.0,0.0,0.0,0.0,0.03580562659846547,0.03580562659846547,0.03324808184143223,0.03580562659846547,0.0,0.0,0.0,0.0,0.01278772378516624,0.034526854219948847,0.0,0.0,0.0
S15_D16 hbo,0.0,0.0,0.0,0.0,0.0,0.0,0.0,0.0,0.0,0.0,0.0,0.0,0.0,0.0,0.0,0.0,0.0,0.0,0.0,0.0,0.0,0.0,0.0,0.0,0.0,0.0,0.0,0.0,0.0,0.0,0.0,0.0,0.0,0.0,0.0,0.0,0.0,0.0,0.0,0.0,0.0,0.0,0.0,0.0,0.0,0.0,0.0,0.0,0.0,0.0,0.0,0.0
S16_D14 hbo,0.0,0.0,0.0,0.0,0.0,0.0,0.0,0.0,0.0,0.0,0.0,0.0,0.0,0.0,0.0,0.0,0.0,0.0,0.0,0.0,0.0,0.0,0.0,0.0,0.0,0.0,0.0,0.0,0.0,0.0,0.0,0.0,0.0,0.0,0.0,0.0,0.0,0.0,0.0,0.0,0.0,0.0,0.0,0.0,0.0,0.0,0.0,0.0,0.0,0.0,0.0,0.0
S16_D16 hbo,0.0,0.0,0.0,0.0,0.0,0.0,0.0,0.0,0.0,0.0,0.0,0.0,0.0,0.0,0.0,0.0,0.0,0.0,0.0,0.0,0.0,0.0,0.0,0.0,0.0,0.0,0.0,0.0,0.0,0.0,0.0,0.0,0.0,0.0,0.0,0.0,0.0,0.0,0.0,0.0,0.0,0.0,0.0,0.0,0.0,0.0,0.0,0.0,0.0,0.0,0.0,0.0
