,S1_D1 hbo,S1_D3 hbo,S2_D1 hbo,S2_D2 hbo,S2_D4 hbo,S3_D1 hbo,S3_D3 hbo,S3_D4 hbo,S3_D5 hbo,S4_D2 hbo,S4_D4 hbo,S4_D6 hbo,S4_D11 hbo,S5_D3 hbo,S5_D5 hbo,S5_D7 hbo,S6_D4 hbo,S6_D5 hbo,S6_D6 hbo,S6_D8 hbo,S7_D5 hbo,S7_D7 hbo,S7_D8 hbo,S8_D6 hbo,S8_D8 hbo,S8_D15 hbo,S9_D2 hbo,S9_D9 hbo,S9_D11 hbo,S10_D9 hbo,S10_D10 hbo,S10_D12 hbo,S11_D9 hbo,S11_D11 hbo,S11_D12 hbo,S11_D13 hbo,S12_D10 hbo,S12_D12 hbo,S12_D14 hbo,S13_D6 hbo,S13_D11 hbo,S13_D13 hbo,S13_D15 hbo,S14_D12 hbo,S14_D13 hbo,S14_D14 hbo,S14_D16 hbo,S15_D13 hbo,S15_D15 hbo,S15_D16 hbo,S16_D14 hbo,S16_D16 hbo
S1_D1 hbo,0.024484536082474227,0.02577319587628866,0.024484536082474227,0.019329896907216496,0.02577319587628866,0.02577319587628866,0.02577319587628866,0.02577319587628866,0.023195876288659795,0.019329896907216496,0.024484536082474227,0.02190721649484536,0.023195876288659795,0.023195876288659795,0.01804123711340206,0.02190721649484536,0.020618556701030927,0.007731958762886598,0.020618556701030927,0.020618556701030927,0.015463917525773196,0.02577319587628866,0.023195876288659795,0.0,0.01675257731958763,0.014175257731958763,0.019329896907216496,0.019329896907216496,0.019329896907216496,0.02577319587628866,0.02577319587628866,0.02190721649484536,0.02190721649484536,0.024484536082474227,0.01804123711340206,0.01675257731958763,0.02577319587628866,0.02577319587628866,0.0,0.02577319587628866,0.011597938144329897,0.0,0.010309278350515464,0.023195876288659795,0.014175257731958763,0.02577319587628866,0.007731958762886598,0.019329896907216496,0.019329896907216496,0.0,0.019329896907216496,0.02190721649484536
S1_D3 hbo,0.01757469244288225,0.03954305799648506,0.02460456942003515,0.025483304042179262,0.02460456942003515,0.037785588752196834,0.033391915641476276,0.026362038664323375,0.01757469244288225,0.02460456942003515,0.022847100175746926,0.0210896309314587,0.023725834797891036,0.02899824253075571,0.012302284710017574,0.02460456942003515,0.01757469244288225,0.005272407732864675,0.014938488576449912,0.01757469244288225,0.01054481546572935,0.023725834797891036,0.0210896309314587,0.0008787346221441124,0.012302284710017574,0.01054481546572935,0.023725834797891036,0.022847100175746926,0.023725834797891036,0.023725834797891036,0.03427065026362039,0.02460456942003515,0.023725834797891036,0.022847100175746926,0.016695957820738138,0.012302284710017574,0.030755711775043937,0.027240773286467488,0.005272407732864675,0.0210896309314587,0.008787346221441126,0.0,0.007029876977152899,0.02460456942003515,0.01054481546572935,0.027240773286467488,0.005272407732864675,0.015817223198594025,0.019332161687170474,0.0,0.013181019332161687,0.015817223198594025
S2_D1 hbo,0.011659807956104253,0.017146776406035666,0.037037037037037035,0.019890260631001373,0.03017832647462277,0.029492455418381344,0.019890260631001373,0.03497942386831276,0.02400548696844993,0.013031550068587106,0.03017832647462277,0.02606310013717421,0.027434842249657063,0.026748971193415638,0.015089163237311385,0.02400548696844993,0.021262002743484224,0.013717421124828532,0.01440329218106996,0.012345679012345678,0.011659807956104253,0.027434842249657063,0.01577503429355281,0.013031550068587106,0.02194787379972565,0.018518518518518517,0.013031550068587106,0.019890260631001373,0.019890260631001373,0.03017832647462277,0.024691358024691357,0.01646090534979424,0.026748971193415638,0.025377229080932786,0.00823045267489712,0.009602194787379973,0.02880658436213992,0.029492455418381344,0.011659807956104253,0.027434842249657063,0.01440329218106996,0.0,0.0054869684499314125,0.0205761316872428,0.023319615912208505,0.026748971193415638,0.00411522633744856,0.01577503429355281,0.019890260631001373,0.0,0.008916323731138546,0.012345679012345678
S2_D2 hbo,0.011992619926199263,0.023985239852398525,0.023985239852398525,0.0470479704797048,0.024907749077490774,0.02952029520295203,0.026752767527675275,0.021217712177121772,0.02029520295202952,0.026752767527675275,0.024907749077490774,0.027675276752767528,0.04059040590405904,0.01937269372693727,0.00922509225092251,0.01845018450184502,0.012915129151291513,0.005535055350553505,0.011992619926199263,0.012915129151291513,0.00922509225092251,0.023985239852398525,0.017527675276752766,0.008302583025830259,0.017527675276752766,0.025830258302583026,0.023985239852398525,0.043357933579335796,0.04428044280442804,0.03136531365313653,0.035977859778597784,0.013837638376383764,0.02029520295202952,0.024907749077490774,0.007380073800738007,0.00922509225092251,0.026752767527675275,0.023062730627306273,0.0027675276752767526,0.023062730627306273,0.01014760147601476,0.0,0.006457564575645757,0.01107011070110701,0.015682656826568265,0.01937269372693727,0.004612546125461255,0.015682656826568265,0.023062730627306273,0.0,0.008302583025830259,0.012915129151291513
S2_D4 hbo,0.012320328542094456,0.017111567419575632,0.030800821355236138,0.02053388090349076,0.03148528405201916,0.02943189596167009,0.019849418206707735,0.028747433264887063,0.024640657084188913,0.012320328542094456,0.030800821355236138,0.025325119780971937,0.02806297056810404,0.02737850787132101,0.015058179329226557,0.024640657084188913,0.02190280629705681,0.008213552361396304,0.015058179329226557,0.013004791238877482,0.01163586584531143,0.02806297056810404,0.01642710472279261,0.013004791238877482,0.02190280629705681,0.019849418206707735,0.012320328542094456,0.02053388090349076,0.02053388090349076,0.03216974674880219,0.026009582477754964,0.017111567419575632,0.02806297056810404,0.02737850787132101,0.00889801505817933,0.009582477754962354,0.030800821355236138,0.030116358658453114,0.01163586584531143,0.02806297056810404,0.014373716632443531,0.0,0.0054757015742642025,0.021218343600273786,0.019164955509924708,0.02737850787132101,0.004106776180698152,0.01574264202600958,0.019164955509924708,0.0,0.009582477754962354,0.013004791238877482
S3_D1 hbo,0.012634238787113077,0.025268477574226154,0.027163613392293114,0.022109917877447885,0.027163613392293114,0.036007580543272265,0.025900189513581806,0.028427037271004423,0.022741629816803537,0.017056222362602652,0.027163613392293114,0.024005053695514846,0.026531901452937462,0.028427037271004423,0.013897662665824383,0.026531901452937462,0.020846493998736577,0.007580543272267846,0.013897662665824383,0.014529374605180037,0.010739102969046115,0.027795325331648767,0.018951358180669616,0.011370814908401769,0.01958307012002527,0.015792798483891344,0.017056222362602652,0.020846493998736577,0.02147820593809223,0.027795325331648767,0.025900189513581806,0.018951358180669616,0.026531901452937462,0.027163613392293114,0.012002526847757423,0.008843967150979154,0.02969046114971573,0.029058749210360075,0.01010739102969046,0.025900189513581806,0.013265950726468731,0.0,0.00505369551484523,0.022741629816803537,0.017687934301958308,0.028427037271004423,0.003790271636133923,0.014529374605180037,0.01958307012002527,0.0,0.009475679090334808,0.012002526847757423
S3_D3 hbo,0.015822784810126583,0.030854430379746837,0.023734177215189875,0.02531645569620253,0.023734177215189875,0.03401898734177215,0.0379746835443038,0.02531645569620253,0.021360759493670885,0.0189873417721519,0.023734177215189875,0.0245253164556962,0.02689873417721519,0.030854430379746837,0.011075949367088608,0.028481012658227847,0.015822784810126583,0.004746835443037975,0.014240506329113924,0.01819620253164557,0.00949367088607595,0.02689873417721519,0.023734177215189875,0.006329113924050633,0.01661392405063291,0.015031645569620253,0.0189873417721519,0.02531645569620253,0.02531645569620253,0.0245253164556962,0.03243670886075949,0.020569620253164556,0.022943037974683545,0.02610759493670886,0.015031645569620253,0.011075949367088608,0.029272151898734177,0.02610759493670886,0.0023734177215189874,0.023734177215189875,0.011867088607594937,0.0,0.006329113924050633,0.01819620253164557,0.014240506329113924,0.02531645569620253,0.004746835443037975,0.014240506329113924,0.020569620253164556,0.0,0.011867088607594937,0.015031645569620253
S3_D4 hbo,0.013131976362442548,0.01772816808929744,0.03479973736047275,0.017071569271175313,0.02954694681549573,0.02954694681549573,0.020354563361785948,0.036769533814839134,0.02495075508864084,0.010505581089954037,0.028233749179251477,0.02298095863427446,0.024294156270518712,0.028890347997373604,0.014445173998686802,0.026263952724885097,0.021667760998030205,0.013131976362442548,0.014445173998686802,0.015101772816808929,0.011162179908076166,0.028890347997373604,0.018384766907419567,0.01247537754432042,0.021011162179908074,0.01772816808929744,0.010505581089954037,0.017071569271175313,0.017071569271175313,0.028890347997373604,0.02495075508864084,0.019041365725541694,0.028890347997373604,0.02757715036112935,0.011162179908076166,0.009192383453709783,0.030860144451739988,0.03151674326986211,0.011162179908076166,0.028233749179251477,0.013788575180564675,0.0,0.005252790544977019,0.02298095863427446,0.02232435981615233,0.028890347997373604,0.003939592908732764,0.013788575180564675,0.017071569271175313,0.0,0.00984898227183191,0.01247537754432042
S3_D5 hbo,0.014705882352941176,0.014705882352941176,0.027089783281733747,0.01934984520123839,0.029411764705882353,0.02631578947368421,0.020123839009287926,0.02786377708978328,0.02863777089783282,0.010835913312693499,0.02786377708978328,0.025541795665634675,0.02786377708978328,0.027089783281733747,0.017027863777089782,0.02631578947368421,0.021671826625386997,0.009287925696594427,0.017027863777089782,0.015479876160990712,0.013157894736842105,0.02863777089783282,0.01934984520123839,0.013157894736842105,0.02321981424148607,0.021671826625386997,0.010835913312693499,0.01934984520123839,0.01934984520123839,0.029411764705882353,0.02321981424148607,0.017027863777089782,0.02786377708978328,0.029411764705882353,0.010835913312693499,0.010835913312693499,0.029411764705882353,0.02863777089783282,0.008513931888544891,0.02863777089783282,0.016253869969040248,0.0,0.006191950464396285,0.020123839009287926,0.020123839009287926,0.02631578947368421,0.0046439628482972135,0.014705882352941176,0.018575851393188854,0.0,0.011609907120743035,0.014705882352941176
S4_D2 hbo,0.018387553041018388,0.036775106082036775,0.024045261669024046,0.04101838755304102,0.02263083451202263,0.03536067892503536,0.031117397454031116,0.019801980198019802,0.016973125884016973,0.04101838755304102,0.024045261669024046,0.028288543140028287,0.031117397454031116,0.016973125884016973,0.014144271570014143,0.015558698727015558,0.014144271570014143,0.008486562942008486,0.015558698727015558,0.014144271570014143,0.014144271570014143,0.02263083451202263,0.016973125884016973,0.0,0.014144271570014143,0.014144271570014143,0.036775106082036775,0.033946251768033946,0.03536067892503536,0.024045261669024046,0.02545968882602546,0.015558698727015558,0.015558698727015558,0.018387553041018388,0.011315417256011316,0.01272984441301273,0.019801980198019802,0.021216407355021217,0.0,0.021216407355021217,0.007072135785007072,0.0,0.009900990099009901,0.016973125884016973,0.014144271570014143,0.019801980198019802,0.007072135785007072,0.024045261669024046,0.028288543140028287,0.0,0.01272984441301273,0.016973125884016973
S4_D4 hbo,0.012108262108262107,0.01638176638176638,0.029914529914529916,0.021367521367521368,0.030626780626780627,0.0292022792022792,0.020655270655270654,0.027777777777777776,0.02492877492877493,0.013532763532763533,0.030626780626780627,0.027065527065527065,0.0292022792022792,0.026353276353276354,0.01566951566951567,0.02492877492877493,0.021367521367521368,0.008547008547008548,0.014957264957264958,0.01282051282051282,0.012108262108262107,0.02849002849002849,0.01638176638176638,0.013532763532763533,0.022792022792022793,0.019943019943019943,0.013532763532763533,0.021367521367521368,0.021367521367521368,0.03133903133903134,0.02492877492877493,0.01566951566951567,0.027065527065527065,0.027065527065527065,0.008547008547008548,0.009971509971509971,0.0292022792022792,0.0292022792022792,0.010683760683760684,0.02849002849002849,0.014957264957264958,0.0,0.005698005698005698,0.019943019943019943,0.019943019943019943,0.026353276353276354,0.004273504273504274,0.01638176638176638,0.020655270655270654,0.0,0.009259259259259259,0.01282051282051282
S4_D6 hbo,0.012096774193548387,0.018548387096774192,0.027419354838709678,0.02661290322580645,0.028225806451612902,0.02903225806451613,0.024193548387096774,0.025,0.024193548387096774,0.017741935483870968,0.028225806451612902,0.03064516129032258,0.03225806451612903,0.02338709677419355,0.014516129032258065,0.02258064516129032,0.017741935483870968,0.00967741935483871,0.01532258064516129,0.012903225806451613,0.013709677419354839,0.027419354838709678,0.016935483870967744,0.012096774193548387,0.021774193548387097,0.02258064516129032,0.017741935483870968,0.02661290322580645,0.02661290322580645,0.02903225806451613,0.025,0.014516129032258065,0.024193548387096774,0.025806451612903226,0.008064516129032258,0.00967741935483871,0.02661290322580645,0.02661290322580645,0.007258064516129033,0.02661290322580645,0.01532258064516129,0.0,0.0064516129032258064,0.016129032258064516,0.01935483870967742,0.02338709677419355,0.004838709677419355,0.018548387096774192,0.025,0.0,0.008870967741935484,0.012903225806451613
S4_D11 hbo,0.011494252873563218,0.01867816091954023,0.02586206896551724,0.033045977011494254,0.02658045977011494,0.028735632183908046,0.022988505747126436,0.023706896551724137,0.022988505747126436,0.017241379310344827,0.02658045977011494,0.028735632183908046,0.03879310344827586,0.022270114942528736,0.014367816091954023,0.021551724137931036,0.017241379310344827,0.008620689655172414,0.014367816091954023,0.01221264367816092,0.01221264367816092,0.02586206896551724,0.015804597701149427,0.011494252873563218,0.020833333333333332,0.02514367816091954,0.017241379310344827,0.033764367816091954,0.033764367816091954,0.031609195402298854,0.03017241379310345,0.013649425287356323,0.022988505747126436,0.02658045977011494,0.007902298850574713,0.009339080459770116,0.028017241379310345,0.02514367816091954,0.007183908045977011,0.02514367816091954,0.014367816091954023,0.0,0.005747126436781609,0.015804597701149427,0.017959770114942528,0.022270114942528736,0.004310344827586207,0.016522988505747127,0.022270114942528736,0.0,0.008620689655172414,0.01221264367816092
S5_D3 hbo,0.013003901170351105,0.022106631989596878,0.027308192457737322,0.015604681404421327,0.02860858257477243,0.0305591677503251,0.02600780234070221,0.0305591677503251,0.0247074122236671,0.009102730819245773,0.026657997399219768,0.021456436931079324,0.022756827048114433,0.03706111833550065,0.014304291287386216,0.031209362808842653,0.021456436931079324,0.007802340702210663,0.014304291287386216,0.01495448634590377,0.011053315994798439,0.027958387516254877,0.01950585175552666,0.01235370611183355,0.02080624187256177,0.017555266579973992,0.009102730819245773,0.015604681404421327,0.015604681404421327,0.027308192457737322,0.02860858257477243,0.021456436931079324,0.02990897269180754,0.029258777633289986,0.01235370611183355,0.009102730819245773,0.035110533159947985,0.03185955786736021,0.01235370611183355,0.026657997399219768,0.013654096228868661,0.0,0.005201560468140442,0.025357607282184655,0.018205461638491547,0.0305591677503251,0.0039011703511053317,0.01235370611183355,0.015604681404421327,0.0,0.00975292587776333,0.01235370611183355
S5_D5 hbo,0.01699029126213592,0.01699029126213592,0.025485436893203883,0.014563106796116505,0.025485436893203883,0.025485436893203883,0.01699029126213592,0.025485436893203883,0.025485436893203883,0.014563106796116505,0.025485436893203883,0.025485436893203883,0.025485436893203883,0.025485436893203883,0.024271844660194174,0.025485436893203883,0.024271844660194174,0.014563106796116505,0.021844660194174758,0.015776699029126214,0.02063106796116505,0.025485436893203883,0.01699029126213592,0.00849514563106796,0.024271844660194174,0.02063106796116505,0.014563106796116505,0.014563106796116505,0.014563106796116505,0.025485436893203883,0.01699029126213592,0.01820388349514563,0.025485436893203883,0.025485436893203883,0.013349514563106795,0.014563106796116505,0.025485436893203883,0.025485436893203883,0.00849514563106796,0.025485436893203883,0.01699029126213592,0.0,0.009708737864077669,0.025485436893203883,0.021844660194174758,0.025485436893203883,0.007281553398058253,0.02063106796116505,0.02063106796116505,0.0,0.014563106796116505,0.01699029126213592
S5_D7 hbo,0.013314646110721794,0.019621583742116328,0.025227750525578137,0.0161177295024527,0.026629292221443588,0.02943237561317449,0.02452697967764541,0.028731604765241767,0.026629292221443588,0.009110021023125438,0.02592852137351086,0.02242466713384723,0.023826208829712685,0.032936229852838124,0.015416958654519973,0.03433777154870357,0.02102312543798178,0.008409250175192713,0.015416958654519973,0.0161177295024527,0.011913104414856343,0.02943237561317449,0.02102312543798178,0.013314646110721794,0.02242466713384723,0.0189208128941836,0.009110021023125438,0.0161177295024527,0.0161177295024527,0.026629292221443588,0.02592852137351086,0.0189208128941836,0.028731604765241767,0.030833917309039945,0.013314646110721794,0.009810791871058164,0.032936229852838124,0.02943237561317449,0.009110021023125438,0.027330063069376315,0.014716187806587245,0.0,0.008409250175192713,0.023125437981779958,0.019621583742116328,0.02803083391730904,0.00700770847932726,0.012613875262789068,0.0161177295024527,0.0,0.01051156271899089,0.013314646110721794
S6_D4 hbo,0.013816925734024179,0.01468048359240069,0.02849740932642487,0.01468048359240069,0.02849740932642487,0.02849740932642487,0.018134715025906734,0.02849740932642487,0.025906735751295335,0.010362694300518135,0.02849740932642487,0.022452504317789293,0.024179620034542316,0.02849740932642487,0.018998272884283247,0.027633851468048358,0.02677029360967185,0.010362694300518135,0.018998272884283247,0.016407599309153715,0.01468048359240069,0.02677029360967185,0.018134715025906734,0.012953367875647668,0.024179620034542316,0.018998272884283247,0.010362694300518135,0.01468048359240069,0.01468048359240069,0.02849740932642487,0.019861830742659757,0.019861830742659757,0.02849740932642487,0.02677029360967185,0.011226252158894647,0.012089810017271158,0.02849740932642487,0.02849740932642487,0.012953367875647668,0.027633851468048358,0.017271157167530225,0.0,0.0069084628670120895,0.024179620034542316,0.022452504317789293,0.02849740932642487,0.0051813471502590676,0.01468048359240069,0.018998272884283247,0.0,0.012089810017271158,0.015544041450777202
S6_D5 hbo,0.01263157894736842,0.01263157894736842,0.042105263157894736,0.01263157894736842,0.023157894736842106,0.023157894736842106,0.01263157894736842,0.042105263157894736,0.023157894736842106,0.01263157894736842,0.023157894736842106,0.023157894736842106,0.023157894736842106,0.023157894736842106,0.023157894736842106,0.023157894736842106,0.023157894736842106,0.037894736842105266,0.021052631578947368,0.01263157894736842,0.023157894736842106,0.023157894736842106,0.01263157894736842,0.010526315789473684,0.023157894736842106,0.023157894736842106,0.01263157894736842,0.01263157894736842,0.01263157894736842,0.023157894736842106,0.01263157894736842,0.014736842105263158,0.023157894736842106,0.023157894736842106,0.01263157894736842,0.01263157894736842,0.023157894736842106,0.023157894736842106,0.010526315789473684,0.023157894736842106,0.018947368421052633,0.0,0.01263157894736842,0.023157894736842106,0.035789473684210524,0.023157894736842106,0.008421052631578947,0.023157894736842106,0.023157894736842106,0.0,0.01263157894736842,0.01263157894736842
S6_D6 hbo,0.018223234624145785,0.018223234624145785,0.025056947608200455,0.018223234624145785,0.025056947608200455,0.025056947608200455,0.02164009111617312,0.025056947608200455,0.025056947608200455,0.014806378132118452,0.025056947608200455,0.023917995444191344,0.025056947608200455,0.025056947608200455,0.0193621867881549,0.023917995444191344,0.022779043280182234,0.010250569476082005,0.022779043280182234,0.0193621867881549,0.017084282460136675,0.025056947608200455,0.02164009111617312,0.00683371298405467,0.02164009111617312,0.0193621867881549,0.014806378132118452,0.018223234624145785,0.018223234624145785,0.025056947608200455,0.02164009111617312,0.02164009111617312,0.023917995444191344,0.025056947608200455,0.01366742596810934,0.015945330296127564,0.025056947608200455,0.025056947608200455,0.00683371298405467,0.025056947608200455,0.017084282460136675,0.0,0.009111617312072893,0.02164009111617312,0.0193621867881549,0.025056947608200455,0.00683371298405467,0.018223234624145785,0.02164009111617312,0.0,0.014806378132118452,0.02050113895216401
S6_D8 hbo,0.019845644983461964,0.020948180815876516,0.023153252480705624,0.018743109151047408,0.024255788313120176,0.026460859977949284,0.026460859977949284,0.026460859977949284,0.025358324145534728,0.013230429988974642,0.023153252480705624,0.020948180815876516,0.022050716648291068,0.026460859977949284,0.015435501653803748,0.026460859977949284,0.022050716648291068,0.006615214994487321,0.019845644983461964,0.024255788313120176,0.013230429988974642,0.026460859977949284,0.026460859977949284,0.005512679162072767,0.019845644983461964,0.017640573318632856,0.013230429988974642,0.018743109151047408,0.018743109151047408,0.024255788313120176,0.026460859977949284,0.025358324145534728,0.026460859977949284,0.026460859977949284,0.017640573318632856,0.015435501653803748,0.026460859977949284,0.026460859977949284,0.0033076074972436605,0.025358324145534728,0.015435501653803748,0.0,0.008820286659316428,0.020948180815876516,0.017640573318632856,0.026460859977949284,0.006615214994487321,0.013230429988974642,0.018743109151047408,0.0,0.016538037486218304,0.019845644983461964
S7_D5 hbo,0.017937219730941704,0.017937219730941704,0.02391629297458894,0.017937219730941704,0.02391629297458894,0.02391629297458894,0.017937219730941704,0.02391629297458894,0.02391629297458894,0.017937219730941704,0.02391629297458894,0.02391629297458894,0.02391629297458894,0.02391629297458894,0.02242152466367713,0.02391629297458894,0.02242152466367713,0.014947683109118086,0.02391629297458894,0.016442451420029897,0.02242152466367713,0.02391629297458894,0.017937219730941704,0.005979073243647235,0.02242152466367713,0.02242152466367713,0.017937219730941704,0.017937219730941704,0.017937219730941704,0.02391629297458894,0.017937219730941704,0.01943198804185351,0.02391629297458894,0.02391629297458894,0.013452914798206279,0.014947683109118086,0.02391629297458894,0.02391629297458894,0.005979073243647235,0.02391629297458894,0.014947683109118086,0.0,0.01195814648729447,0.02391629297458894,0.02242152466367713,0.02391629297458894,0.008968609865470852,0.02391629297458894,0.02391629297458894,0.0,0.014947683109118086,0.017937219730941704
S7_D7 hbo,0.013821700069108501,0.01796821008984105,0.027643400138217002,0.020041465100207326,0.02902557014512785,0.02902557014512785,0.022805805114029024,0.028334485141672427,0.02626123013130615,0.01243953006219765,0.028334485141672427,0.025570145127850726,0.027643400138217002,0.026952315134761574,0.01520387007601935,0.02626123013130615,0.020041465100207326,0.0082930200414651,0.01520387007601935,0.015894955079474776,0.011748445058742226,0.0304077401520387,0.019350380096751902,0.01243953006219765,0.021423635107118175,0.019350380096751902,0.01243953006219765,0.020041465100207326,0.020041465100207326,0.029716655148583276,0.025570145127850726,0.017277125086385625,0.027643400138217002,0.02902557014512785,0.011748445058742226,0.009675190048375951,0.029716655148583276,0.029716655148583276,0.0082930200414651,0.028334485141672427,0.014512785072563926,0.0,0.0055286800276434,0.02073255010366275,0.018659295093296474,0.026952315134761574,0.00414651002073255,0.015894955079474776,0.019350380096751902,0.0,0.010366275051831375,0.013130615065653075
S7_D8 hbo,0.018570102135561744,0.02135561745589601,0.02414113277623027,0.02042711234911792,0.025069637883008356,0.027855153203342618,0.027855153203342618,0.028783658310120707,0.025069637883008356,0.012999071494893221,0.02414113277623027,0.022284122562674095,0.02321262766945218,0.027855153203342618,0.012999071494893221,0.02692664809656453,0.018570102135561744,0.005571030640668524,0.016713091922005572,0.02135561745589601,0.011142061281337047,0.028783658310120707,0.02692664809656453,0.007428040854224698,0.019498607242339833,0.017641597028783658,0.012999071494893221,0.02042711234911792,0.02042711234911792,0.025069637883008356,0.028783658310120707,0.02321262766945218,0.02692664809656453,0.028783658310120707,0.016713091922005572,0.012999071494893221,0.028783658310120707,0.028783658310120707,0.002785515320334262,0.025998142989786442,0.013927576601671309,0.0,0.007428040854224698,0.02042711234911792,0.016713091922005572,0.027855153203342618,0.005571030640668524,0.012999071494893221,0.017641597028783658,0.0,0.013927576601671309,0.017641597028783658
S8_D6 hbo,0.0,0.0,0.03278688524590164,0.018214936247723135,0.03460837887067395,0.029143897996357013,0.012750455373406194,0.03278688524590164,0.03460837887067395,0.0,0.03460837887067395,0.030965391621129327,0.03278688524590164,0.03278688524590164,0.014571948998178506,0.03278688524590164,0.023679417122040074,0.01092896174863388,0.01092896174863388,0.007285974499089253,0.009107468123861567,0.03460837887067395,0.012750455373406194,0.03278688524590164,0.03278688524590164,0.029143897996357013,0.0,0.018214936247723135,0.018214936247723135,0.03460837887067395,0.018214936247723135,0.009107468123861567,0.03460837887067395,0.03460837887067395,0.0,0.0018214936247723133,0.03460837887067395,0.03460837887067395,0.02185792349726776,0.03460837887067395,0.02185792349726776,0.0,0.0,0.01639344262295082,0.029143897996357013,0.029143897996357013,0.0,0.009107468123861567,0.018214936247723135,0.0,0.0,0.0036429872495446266
S8_D8 hbo,0.011555555555555555,0.011555555555555555,0.027555555555555555,0.019555555555555555,0.028444444444444446,0.025777777777777778,0.017777777777777778,0.027555555555555555,0.028444444444444446,0.010666666666666666,0.028444444444444446,0.02666666666666667,0.027555555555555555,0.027555555555555555,0.017777777777777778,0.027555555555555555,0.022222222222222223,0.010666666666666666,0.016888888888888887,0.014222222222222223,0.015111111111111112,0.028444444444444446,0.017777777777777778,0.016,0.02666666666666667,0.024,0.010666666666666666,0.019555555555555555,0.019555555555555555,0.028444444444444446,0.020444444444444446,0.016,0.028444444444444446,0.028444444444444446,0.008888888888888889,0.010666666666666666,0.028444444444444446,0.028444444444444446,0.010666666666666666,0.028444444444444446,0.016888888888888887,0.0,0.0071111111111111115,0.019555555555555555,0.024,0.025777777777777778,0.005333333333333333,0.015111111111111112,0.019555555555555555,0.0,0.009777777777777778,0.013333333333333334
S8_D15 hbo,0.010848126232741617,0.010848126232741617,0.02465483234714004,0.029585798816568046,0.026627218934911243,0.022682445759368838,0.01775147928994083,0.02465483234714004,0.02564102564102564,0.010848126232741617,0.02564102564102564,0.02564102564102564,0.03451676528599606,0.02465483234714004,0.014792899408284023,0.02465483234714004,0.01873767258382643,0.010848126232741617,0.016765285996055226,0.013806706114398421,0.014792899408284023,0.02564102564102564,0.01775147928994083,0.013806706114398421,0.023668639053254437,0.03254437869822485,0.010848126232741617,0.029585798816568046,0.029585798816568046,0.03254437869822485,0.029585798816568046,0.015779092702169626,0.026627218934911243,0.029585798816568046,0.007889546351084813,0.009861932938856016,0.03057199211045365,0.02564102564102564,0.007889546351084813,0.02564102564102564,0.015779092702169626,0.0,0.006903353057199211,0.015779092702169626,0.021696252465483234,0.022682445759368838,0.004930966469428008,0.015779092702169626,0.020710059171597635,0.0,0.008875739644970414,0.01282051282051282
S9_D2 hbo,0.01849217638691323,0.03698435277382646,0.02418207681365576,0.03840682788051209,0.02275960170697013,0.03556187766714083,0.031294452347083924,0.01991465149359886,0.017069701280227598,0.03840682788051209,0.02418207681365576,0.02844950213371266,0.031294452347083924,0.017069701280227598,0.01422475106685633,0.015647226173541962,0.01422475106685633,0.008534850640113799,0.015647226173541962,0.01422475106685633,0.01422475106685633,0.02275960170697013,0.017069701280227598,0.0,0.01422475106685633,0.01422475106685633,0.03698435277382646,0.034139402560455195,0.03556187766714083,0.02418207681365576,0.025604551920341393,0.015647226173541962,0.015647226173541962,0.01849217638691323,0.011379800853485065,0.012802275960170697,0.01991465149359886,0.021337126600284494,0.0,0.021337126600284494,0.007112375533428165,0.0,0.00995732574679943,0.017069701280227598,0.01422475106685633,0.01991465149359886,0.007112375533428165,0.02418207681365576,0.02844950213371266,0.0,0.012802275960170697,0.017069701280227598
S9_D9 hbo,0.012081784386617101,0.023234200743494422,0.024163568773234202,0.04368029739776952,0.02509293680297398,0.02973977695167286,0.02695167286245353,0.02137546468401487,0.020446096654275093,0.023234200743494422,0.02509293680297398,0.027881040892193308,0.040892193308550186,0.019516728624535316,0.00929368029739777,0.01858736059479554,0.013011152416356878,0.0055762081784386614,0.012081784386617101,0.013011152416356878,0.00929368029739777,0.024163568773234202,0.017657992565055763,0.008364312267657992,0.017657992565055763,0.026022304832713755,0.023234200743494422,0.04460966542750929,0.04553903345724907,0.031598513011152414,0.0362453531598513,0.013940520446096654,0.020446096654275093,0.02509293680297398,0.007434944237918215,0.00929368029739777,0.02695167286245353,0.023234200743494422,0.0027881040892193307,0.023234200743494422,0.010223048327137546,0.0,0.006505576208178439,0.011152416356877323,0.015799256505576207,0.019516728624535316,0.004646840148698885,0.015799256505576207,0.023234200743494422,0.0,0.008364312267657992,0.013011152416356878
S9_D11 hbo,0.012037037037037037,0.024074074074074074,0.024074074074074074,0.044444444444444446,0.025,0.02962962962962963,0.026851851851851852,0.021296296296296296,0.020370370370370372,0.024074074074074074,0.025,0.027777777777777776,0.040740740740740744,0.019444444444444445,0.009259259259259259,0.018518518518518517,0.012962962962962963,0.005555555555555556,0.012037037037037037,0.012962962962962963,0.009259259259259259,0.024074074074074074,0.017592592592592594,0.008333333333333333,0.017592592592592594,0.025925925925925925,0.024074074074074074,0.044444444444444446,0.04537037037037037,0.03148148148148148,0.03611111111111111,0.013888888888888888,0.020370370370370372,0.025,0.007407407407407408,0.009259259259259259,0.026851851851851852,0.023148148148148147,0.002777777777777778,0.023148148148148147,0.010185185185185186,0.0,0.006481481481481481,0.011111111111111112,0.01574074074074074,0.019444444444444445,0.004629629629629629,0.01574074074074074,0.023148148148148147,0.0,0.008333333333333333,0.012962962962962963
S10_D9 hbo,0.012096774193548387,0.016129032258064516,0.02889784946236559,0.02486559139784946,0.02956989247311828,0.028225806451612902,0.020161290322580645,0.026881720430107527,0.024193548387096774,0.012768817204301076,0.02956989247311828,0.025537634408602152,0.03225806451612903,0.025537634408602152,0.01478494623655914,0.024193548387096774,0.020833333333333332,0.008064516129032258,0.01478494623655914,0.012768817204301076,0.0114247311827957,0.027553763440860215,0.016129032258064516,0.012768817204301076,0.021505376344086023,0.023521505376344086,0.012768817204301076,0.02486559139784946,0.02486559139784946,0.034274193548387094,0.02889784946236559,0.015456989247311828,0.02620967741935484,0.028225806451612902,0.008736559139784945,0.009408602150537635,0.030913978494623656,0.028225806451612902,0.010080645161290322,0.027553763440860215,0.014112903225806451,0.0,0.005376344086021506,0.019489247311827957,0.01881720430107527,0.025537634408602152,0.004032258064516129,0.015456989247311828,0.019489247311827957,0.0,0.009408602150537635,0.012768817204301076
S10_D10 hbo,0.013577732518669382,0.025797691785471828,0.025118805159538356,0.028513238289205704,0.026476578411405296,0.02987101154107264,0.027155465037338764,0.026476578411405296,0.019687712152070606,0.013577732518669382,0.024439918533604887,0.02172437202987101,0.03054989816700611,0.029192124915139173,0.009504412763068567,0.024439918533604887,0.016293279022403257,0.004073319755600814,0.012219959266802444,0.015614392396469789,0.008146639511201629,0.025118805159538356,0.020366598778004074,0.006788866259334691,0.015614392396469789,0.019687712152070606,0.013577732518669382,0.028513238289205704,0.028513238289205704,0.02987101154107264,0.04344874405974202,0.02308214528173795,0.025797691785471828,0.027155465037338764,0.012898845892735914,0.009504412763068567,0.03598099117447386,0.031907671418873046,0.010183299389002037,0.02308214528173795,0.010183299389002037,0.0,0.005431093007467753,0.02308214528173795,0.012898845892735914,0.028513238289205704,0.004073319755600814,0.012219959266802444,0.01697216564833673,0.0,0.010183299389002037,0.012898845892735914
S10_D12 hbo,0.017447199265381085,0.024793388429752067,0.025711662075298437,0.01652892561983471,0.02662993572084481,0.02938475665748393,0.024793388429752067,0.030303030303030304,0.02203856749311295,0.011937557392102846,0.023875114784205693,0.018365472910927456,0.01928374655647383,0.03213957759412305,0.012855831037649219,0.025711662075298437,0.02203856749311295,0.005509641873278237,0.01652892561983471,0.021120293847566574,0.011019283746556474,0.025711662075298437,0.024793388429752067,0.005509641873278237,0.017447199265381085,0.014692378328741965,0.011937557392102846,0.01652892561983471,0.01652892561983471,0.024793388429752067,0.031221303948576674,0.02938475665748393,0.02938475665748393,0.025711662075298437,0.01652892561983471,0.012855831037649219,0.03213957759412305,0.03213957759412305,0.010101010101010102,0.023875114784205693,0.012855831037649219,0.0,0.0073461891643709825,0.027548209366391185,0.015610651974288337,0.03213957759412305,0.005509641873278237,0.011937557392102846,0.01652892561983471,0.0,0.013774104683195593,0.017447199265381085
S11_D9 hbo,0.0131852879944483,0.016655100624566273,0.027758501040943788,0.01734906315058987,0.029840388619014575,0.02914642609299098,0.01943095072866065,0.030534351145038167,0.0263705759888966,0.009021512838306732,0.027758501040943788,0.02220680083275503,0.02498265093684941,0.030534351145038167,0.015267175572519083,0.027758501040943788,0.022900763358778626,0.008327550312283136,0.015267175572519083,0.015961138098542677,0.01179736294240111,0.028452463566967384,0.01943095072866065,0.0131852879944483,0.02220680083275503,0.020124913254684247,0.009021512838306732,0.01734906315058987,0.01734906315058987,0.029840388619014575,0.025676613462873005,0.020124913254684247,0.031228313671061762,0.029840388619014575,0.01179736294240111,0.009715475364330326,0.03261623872310895,0.031228313671061762,0.01179736294240111,0.027758501040943788,0.01457321304649549,0.0,0.005551700208188758,0.024288688410825817,0.01943095072866065,0.02914642609299098,0.004163775156141568,0.012491325468424705,0.015961138098542677,0.0,0.010409437890353921,0.0131852879944483
S11_D11 hbo,0.013717421124828532,0.017146776406035666,0.025377229080932786,0.0205761316872428,0.027434842249657063,0.028120713305898493,0.02194787379972565,0.02880658436213992,0.02606310013717421,0.0102880658436214,0.02606310013717421,0.023319615912208505,0.028120713305898493,0.028120713305898493,0.015089163237311385,0.027434842249657063,0.019890260631001373,0.00823045267489712,0.015089163237311385,0.01577503429355281,0.011659807956104253,0.029492455418381344,0.0205761316872428,0.012345679012345678,0.021262002743484224,0.02194787379972565,0.0102880658436214,0.0205761316872428,0.0205761316872428,0.03017832647462277,0.027434842249657063,0.018518518518518517,0.028120713305898493,0.03223593964334705,0.013031550068587106,0.009602194787379973,0.033607681755829906,0.029492455418381344,0.00823045267489712,0.027434842249657063,0.01440329218106996,0.0,0.0054869684499314125,0.02194787379972565,0.018518518518518517,0.028120713305898493,0.00411522633744856,0.013717421124828532,0.017146776406035666,0.0,0.0102880658436214,0.013031550068587106
S11_D12 hbo,0.0213903743315508,0.02540106951871658,0.020053475935828877,0.014705882352941176,0.0213903743315508,0.026737967914438502,0.026737967914438502,0.026737967914438502,0.022727272727272728,0.013368983957219251,0.020053475935828877,0.017379679144385027,0.01871657754010695,0.026737967914438502,0.017379679144385027,0.026737967914438502,0.0213903743315508,0.008021390374331552,0.020053475935828877,0.02540106951871658,0.014705882352941176,0.026737967914438502,0.026737967914438502,0.001336898395721925,0.017379679144385027,0.014705882352941176,0.013368983957219251,0.014705882352941176,0.014705882352941176,0.0213903743315508,0.026737967914438502,0.026737967914438502,0.026737967914438502,0.026737967914438502,0.02807486631016043,0.01871657754010695,0.026737967914438502,0.026737967914438502,0.001336898395721925,0.022727272727272728,0.013368983957219251,0.0,0.016042780748663103,0.02540106951871658,0.014705882352941176,0.026737967914438502,0.013368983957219251,0.013368983957219251,0.014705882352941176,0.004010695187165776,0.020053475935828877,0.020053475935828877
S11_D13 hbo,0.02,0.02,0.023076923076923078,0.02,0.023076923076923078,0.023076923076923078,0.023076923076923078,0.023076923076923078,0.023076923076923078,0.016923076923076923,0.023076923076923078,0.023076923076923078,0.023076923076923078,0.023076923076923078,0.02,0.023076923076923078,0.023076923076923078,0.009230769230769232,0.023076923076923078,0.023076923076923078,0.018461538461538463,0.023076923076923078,0.023076923076923078,0.003076923076923077,0.023076923076923078,0.02,0.016923076923076923,0.02,0.02,0.023076923076923078,0.023076923076923078,0.023076923076923078,0.023076923076923078,0.023076923076923078,0.016923076923076923,0.02,0.023076923076923078,0.023076923076923078,0.003076923076923077,0.023076923076923078,0.015384615384615385,0.0,0.012307692307692308,0.02,0.02,0.023076923076923078,0.009230769230769232,0.016923076923076923,0.02,0.0,0.018461538461538463,0.023076923076923078
S12_D10 hbo,0.012269938650306749,0.020858895705521473,0.026993865030674847,0.0196319018404908,0.02883435582822086,0.030061349693251534,0.022085889570552148,0.029447852760736196,0.023312883435582823,0.0098159509202454,0.02638036809815951,0.02147239263803681,0.02638036809815951,0.03190184049079755,0.013496932515337423,0.027607361963190184,0.020245398773006136,0.007361963190184049,0.013496932515337423,0.01411042944785276,0.010429447852760737,0.027607361963190184,0.018404907975460124,0.011656441717791411,0.0196319018404908,0.020245398773006136,0.0098159509202454,0.0196319018404908,0.0196319018404908,0.03067484662576687,0.03251533742331288,0.02147239263803681,0.02883435582822086,0.030061349693251534,0.011656441717791411,0.008588957055214725,0.03742331288343558,0.03251533742331288,0.012883435582822086,0.02638036809815951,0.012883435582822086,0.0,0.0049079754601227,0.025153374233128835,0.01717791411042945,0.03067484662576687,0.0036809815950920245,0.012883435582822086,0.015950920245398775,0.0,0.009202453987730062,0.011656441717791411
S12_D12 hbo,0.01272264631043257,0.019083969465648856,0.02862595419847328,0.017811704834605598,0.030534351145038167,0.029262086513994912,0.020356234096692113,0.02989821882951654,0.024173027989821884,0.010814249363867684,0.027989821882951654,0.022900763358778626,0.02480916030534351,0.02989821882951654,0.013994910941475827,0.02544529262086514,0.02099236641221374,0.007633587786259542,0.013994910941475827,0.014631043256997456,0.010814249363867684,0.02862595419847328,0.017811704834605598,0.012086513994910942,0.020356234096692113,0.017811704834605598,0.010814249363867684,0.017811704834605598,0.017811704834605598,0.029262086513994912,0.030534351145038167,0.02099236641221374,0.029262086513994912,0.027353689567430027,0.010814249363867684,0.008905852417302799,0.03371501272264631,0.03625954198473282,0.015903307888040712,0.027353689567430027,0.013358778625954198,0.0,0.005089058524173028,0.02608142493638677,0.017811704834605598,0.031170483460559797,0.003816793893129771,0.013994910941475827,0.01717557251908397,0.0,0.009541984732824428,0.012086513994910942
S12_D14 hbo,0.0,0.009328358208955223,0.03544776119402985,0.007462686567164179,0.03544776119402985,0.033582089552238806,0.007462686567164179,0.03544776119402985,0.024253731343283583,0.0,0.03171641791044776,0.020522388059701493,0.022388059701492536,0.03917910447761194,0.014925373134328358,0.027985074626865673,0.03171641791044776,0.011194029850746268,0.011194029850746268,0.007462686567164179,0.009328358208955223,0.026119402985074626,0.007462686567164179,0.026119402985074626,0.026119402985074626,0.018656716417910446,0.0,0.007462686567164179,0.007462686567164179,0.03171641791044776,0.027985074626865673,0.024253731343283583,0.03544776119402985,0.026119402985074626,0.0,0.0018656716417910447,0.04291044776119403,0.04664179104477612,0.04477611940298507,0.027985074626865673,0.018656716417910446,0.0,0.0,0.03731343283582089,0.026119402985074626,0.04291044776119403,0.0,0.009328358208955223,0.016791044776119403,0.0,0.0,0.0037313432835820895
S13_D6 hbo,0.013620071684587814,0.015770609318996417,0.02867383512544803,0.02007168458781362,0.03082437275985663,0.02795698924731183,0.02078853046594982,0.02795698924731183,0.026523297491039426,0.012186379928315413,0.02939068100358423,0.025806451612903226,0.02795698924731183,0.026523297491039426,0.015770609318996417,0.025806451612903226,0.021505376344086023,0.008602150537634409,0.015770609318996417,0.014336917562724014,0.012186379928315413,0.030107526881720432,0.017921146953405017,0.013620071684587814,0.022939068100358423,0.02007168458781362,0.012186379928315413,0.02007168458781362,0.02007168458781362,0.03082437275985663,0.023655913978494623,0.015770609318996417,0.02724014336917563,0.02867383512544803,0.01003584229390681,0.01003584229390681,0.02939068100358423,0.02939068100358423,0.00931899641577061,0.02939068100358423,0.015053763440860216,0.0,0.005734767025089606,0.02007168458781362,0.02007168458781362,0.026523297491039426,0.004301075268817204,0.015770609318996417,0.01935483870967742,0.0,0.010752688172043012,0.013620071684587814
S13_D11 hbo,0.011378002528445006,0.011378002528445006,0.02654867256637168,0.017699115044247787,0.02654867256637168,0.02654867256637168,0.020227560050568902,0.02654867256637168,0.02654867256637168,0.008849557522123894,0.02654867256637168,0.02654867256637168,0.02654867256637168,0.02654867256637168,0.017699115044247787,0.02654867256637168,0.022756005056890013,0.01390644753476612,0.018963337547408345,0.01643489254108723,0.01643489254108723,0.02654867256637168,0.020227560050568902,0.015170670037926675,0.02654867256637168,0.02402022756005057,0.008849557522123894,0.017699115044247787,0.017699115044247787,0.02654867256637168,0.020227560050568902,0.017699115044247787,0.02654867256637168,0.02654867256637168,0.011378002528445006,0.012642225031605562,0.02654867256637168,0.02654867256637168,0.010113780025284451,0.02654867256637168,0.02402022756005057,0.0,0.008849557522123894,0.017699115044247787,0.02402022756005057,0.02654867256637168,0.007585335018963337,0.015170670037926675,0.021491782553729456,0.0,0.011378002528445006,0.01390644753476612
S13_D13 hbo,0.0,0.0,0.0,0.0,0.0,0.0,0.0,0.0,0.0,0.0,0.0,0.0,0.0,0.0,0.0,0.0,0.0,0.0,0.0,0.0,0.0,0.0,0.0,0.0,0.0,0.0,0.0,0.0,0.0,0.0,0.0,0.0,0.0,0.0,0.0,0.0,0.0,0.0,0.0,0.0,0.0,0.6388888888888888,0.0,0.0,0.0,0.0,0.0,0.0,0.0,0.3611111111111111,0.0,0.0
S13_D15 hbo,0.019184652278177457,0.019184652278177457,0.019184652278177457,0.019184652278177457,0.019184652278177457,0.019184652278177457,0.019184652278177457,0.019184652278177457,0.019184652278177457,0.019184652278177457,0.019184652278177457,0.019184652278177457,0.019184652278177457,0.019184652278177457,0.019184652278177457,0.02877697841726619,0.019184652278177457,0.014388489208633094,0.019184652278177457,0.019184652278177457,0.019184652278177457,0.019184652278177457,0.019184652278177457,0.0,0.019184652278177457,0.019184652278177457,0.019184652278177457,0.019184652278177457,0.019184652278177457,0.019184652278177457,0.019184652278177457,0.019184652278177457,0.019184652278177457,0.019184652278177457,0.026378896882494004,0.019184652278177457,0.019184652278177457,0.019184652278177457,0.0,0.019184652278177457,0.011990407673860911,0.0,0.05515587529976019,0.019184652278177457,0.019184652278177457,0.019184652278177457,0.0407673860911271,0.019184652278177457,0.019184652278177457,0.016786570743405275,0.019184652278177457,0.019184652278177457
S14_D12 hbo,0.01644736842105263,0.023026315789473683,0.027138157894736843,0.011513157894736841,0.027960526315789474,0.03042763157894737,0.018914473684210526,0.03125,0.023026315789473683,0.011513157894736841,0.02549342105263158,0.018914473684210526,0.02055921052631579,0.032072368421052634,0.018092105263157895,0.02631578947368421,0.023848684210526317,0.009868421052631578,0.01644736842105263,0.015625,0.013980263157894737,0.027138157894736843,0.018092105263157895,0.008223684210526315,0.018914473684210526,0.013980263157894737,0.011513157894736841,0.011513157894736841,0.011513157894736841,0.02631578947368421,0.02631578947368421,0.024671052631578948,0.029605263157894735,0.027138157894736843,0.014802631578947368,0.01069078947368421,0.03453947368421053,0.03453947368421053,0.015625,0.02549342105263158,0.012335526315789474,0.0,0.006578947368421052,0.033717105263157895,0.017269736842105265,0.03453947368421053,0.004934210526315789,0.015625,0.015625,0.0,0.012335526315789474,0.013980263157894737
S14_D13 hbo,0.010689990281827016,0.010689990281827016,0.034013605442176874,0.0184645286686103,0.027210884353741496,0.026239067055393587,0.01749271137026239,0.034013605442176874,0.027210884353741496,0.010689990281827016,0.027210884353741496,0.025267249757045675,0.026239067055393587,0.027210884353741496,0.01749271137026239,0.027210884353741496,0.022351797862001945,0.0184645286686103,0.01652089407191448,0.013605442176870748,0.014577259475218658,0.027210884353741496,0.01749271137026239,0.01652089407191448,0.026239067055393587,0.023323615160349854,0.010689990281827016,0.0184645286686103,0.0184645286686103,0.027210884353741496,0.0184645286686103,0.015549076773566569,0.027210884353741496,0.027210884353741496,0.007774538386783284,0.009718172983479106,0.027210884353741496,0.027210884353741496,0.011661807580174927,0.027210884353741496,0.01652089407191448,0.0,0.006802721088435374,0.019436345966958212,0.031098153547133137,0.026239067055393587,0.004859086491739553,0.015549076773566569,0.02040816326530612,0.0,0.008746355685131196,0.012633624878522837
S14_D14 hbo,0.01330671989354624,0.01996007984031936,0.028609447771124417,0.015968063872255488,0.02927478376580173,0.030605455755156354,0.021290751829673986,0.03127079174983367,0.023952095808383235,0.010645375914836993,0.027278775781769793,0.021956087824351298,0.023286759813705923,0.03127079174983367,0.014637391882900865,0.02661343978709248,0.021956087824351298,0.007984031936127744,0.014637391882900865,0.015302727877578177,0.011310711909514305,0.028609447771124417,0.01929474384564205,0.011976047904191617,0.020625415834996674,0.0166333998669328,0.010645375914836993,0.015968063872255488,0.015968063872255488,0.027944111776447105,0.027278775781769793,0.02262142381902861,0.02927478376580173,0.027278775781769793,0.011976047904191617,0.009314703925482368,0.0332667997338656,0.033932135728542916,0.013972055888223553,0.027278775781769793,0.013972055888223553,0.0,0.0053226879574184965,0.02661343978709248,0.018629407850964737,0.03260146373918829,0.003992015968063872,0.013972055888223553,0.017298735861610112,0.0,0.00998003992015968,0.012641383898868928
S14_D16 hbo,0.018072289156626505,0.018072289156626505,0.018072289156626505,0.018072289156626505,0.018072289156626505,0.018072289156626505,0.018072289156626505,0.018072289156626505,0.018072289156626505,0.018072289156626505,0.018072289156626505,0.018072289156626505,0.018072289156626505,0.018072289156626505,0.018072289156626505,0.024096385542168676,0.018072289156626505,0.018072289156626505,0.018072289156626505,0.018072289156626505,0.018072289156626505,0.018072289156626505,0.018072289156626505,0.0,0.018072289156626505,0.018072289156626505,0.018072289156626505,0.018072289156626505,0.018072289156626505,0.018072289156626505,0.018072289156626505,0.018072289156626505,0.018072289156626505,0.018072289156626505,0.02710843373493976,0.018072289156626505,0.018072289156626505,0.018072289156626505,0.0,0.018072289156626505,0.015060240963855422,0.0,0.05120481927710843,0.018072289156626505,0.018072289156626505,0.018072289156626505,0.06626506024096386,0.018072289156626505,0.018072289156626505,0.0391566265060241,0.018072289156626505,0.018072289156626505
S15_D13 hbo,0.016971279373368148,0.02349869451697128,0.02741514360313316,0.02349869451697128,0.02610966057441253,0.028720626631853787,0.02349869451697128,0.02349869451697128,0.020887728459530026,0.02349869451697128,0.02741514360313316,0.028720626631853787,0.028720626631853787,0.020887728459530026,0.018276762402088774,0.0195822454308094,0.018276762402088774,0.013054830287206266,0.0195822454308094,0.013054830287206266,0.018276762402088774,0.02610966057441253,0.015665796344647518,0.005221932114882507,0.018276762402088774,0.018276762402088774,0.02349869451697128,0.02349869451697128,0.02349869451697128,0.02741514360313316,0.02349869451697128,0.015665796344647518,0.0195822454308094,0.022193211488250653,0.010443864229765013,0.01174934725848564,0.02349869451697128,0.024804177545691905,0.005221932114882507,0.024804177545691905,0.01174934725848564,0.0,0.009138381201044387,0.020887728459530026,0.018276762402088774,0.02349869451697128,0.006527415143603133,0.02741514360313316,0.028720626631853787,0.0,0.01174934725848564,0.015665796344647518
S15_D15 hbo,0.013052208835341365,0.02108433734939759,0.02710843373493976,0.02710843373493976,0.02610441767068273,0.03112449799196787,0.02710843373493976,0.024096385542168676,0.02208835341365462,0.02108433734939759,0.02710843373493976,0.030120481927710843,0.03112449799196787,0.02208835341365462,0.014056224899598393,0.02108433734939759,0.018072289156626505,0.010040160642570281,0.01706827309236948,0.014056224899598393,0.014056224899598393,0.02610441767068273,0.018072289156626505,0.010040160642570281,0.020080321285140562,0.020080321285140562,0.02108433734939759,0.02710843373493976,0.02710843373493976,0.02710843373493976,0.024096385542168676,0.01606425702811245,0.02108433734939759,0.023092369477911646,0.008032128514056224,0.010040160642570281,0.024096385542168676,0.025100401606425703,0.007028112449799197,0.025100401606425703,0.015060240963855422,0.0,0.007028112449799197,0.01606425702811245,0.020080321285140562,0.024096385542168676,0.0050200803212851405,0.02108433734939759,0.029116465863453816,0.0,0.009036144578313253,0.014056224899598393
S15_D16 hbo,0.0,0.0,0.0,0.0,0.0,0.0,0.0,0.0,0.0,0.0,0.0,0.0,0.0,0.0,0.0,0.0,0.0,0.0,0.0,0.0,0.0,0.0,0.0,0.0,0.0,0.0,0.0,0.0,0.0,0.0,0.0,0.0,0.0,0.0,0.012658227848101266,0.0,0.0,0.0,0.0,0.0,0.0,0.31645569620253167,0.06329113924050633,0.0,0.0,0.0,0.1518987341772152,0.0,0.0,0.45569620253164556,0.0,0.0
S16_D14 hbo,0.023474178403755867,0.023474178403755867,0.023474178403755867,0.017214397496087636,0.023474178403755867,0.023474178403755867,0.023474178403755867,0.023474178403755867,0.023474178403755867,0.017214397496087636,0.023474178403755867,0.02034428794992175,0.02190923317683881,0.023474178403755867,0.02190923317683881,0.023474178403755867,0.023474178403755867,0.009389671361502348,0.023474178403755867,0.023474178403755867,0.018779342723004695,0.023474178403755867,0.023474178403755867,0.0,0.02034428794992175,0.017214397496087636,0.017214397496087636,0.017214397496087636,0.017214397496087636,0.023474178403755867,0.023474178403755867,0.023474178403755867,0.023474178403755867,0.023474178403755867,0.02034428794992175,0.02034428794992175,0.023474178403755867,0.023474178403755867,0.0,0.023474178403755867,0.014084507042253521,0.0,0.012519561815336464,0.023474178403755867,0.017214397496087636,0.023474178403755867,0.009389671361502348,0.017214397496087636,0.017214397496087636,0.0,0.02190923317683881,0.023474178403755867
S16_D16 hbo,0.02109181141439206,0.02109181141439206,0.02481389578163772,0.02109181141439206,0.02481389578163772,0.02481389578163772,0.02481389578163772,0.02481389578163772,0.02357320099255583,0.017369727047146403,0.02481389578163772,0.02357320099255583,0.02481389578163772,0.02357320099255583,0.017369727047146403,0.022332506203473945,0.02109181141439206,0.007444168734491315,0.02109181141439206,0.02109181141439206,0.01488833746898263,0.02481389578163772,0.02357320099255583,0.0037220843672456576,0.019851116625310174,0.017369727047146403,0.017369727047146403,0.02109181141439206,0.02109181141439206,0.02481389578163772,0.02481389578163772,0.022332506203473945,0.022332506203473945,0.02481389578163772,0.01488833746898263,0.017369727047146403,0.02481389578163772,0.02481389578163772,0.0037220843672456576,0.02481389578163772,0.01488833746898263,0.0,0.009925558312655087,0.019851116625310174,0.017369727047146403,0.02481389578163772,0.007444168734491315,0.017369727047146403,0.02109181141439206,0.0,0.016129032258064516,0.022332506203473945
