,S1_D1 hbo,S1_D3 hbo,S2_D1 hbo,S2_D2 hbo,S2_D4 hbo,S3_D1 hbo,S3_D3 hbo,S3_D4 hbo,S3_D5 hbo,S4_D2 hbo,S4_D4 hbo,S4_D6 hbo,S4_D11 hbo,S5_D3 hbo,S5_D5 hbo,S5_D7 hbo,S6_D4 hbo,S6_D5 hbo,S6_D6 hbo,S6_D8 hbo,S7_D5 hbo,S7_D7 hbo,S7_D8 hbo,S8_D6 hbo,S8_D8 hbo,S8_D15 hbo,S9_D2 hbo,S9_D9 hbo,S9_D11 hbo,S10_D9 hbo,S10_D10 hbo,S10_D12 hbo,S11_D9 hbo,S11_D11 hbo,S11_D12 hbo,S11_D13 hbo,S12_D10 hbo,S12_D12 hbo,S12_D14 hbo,S13_D6 hbo,S13_D11 hbo,S13_D13 hbo,S13_D15 hbo,S14_D12 hbo,S14_D13 hbo,S14_D14 hbo,S14_D16 hbo,S15_D13 hbo,S15_D15 hbo,S15_D16 hbo,S16_D14 hbo,S16_D16 hbo
S1_D1 hbo,0.0,0.0,0.0,0.0,0.0,0.0,0.0,0.0,0.0,0.0,0.0,0.0,0.0,0.0,0.0,0.0,0.0,0.0,0.0,0.0,0.0,0.0,0.0,0.0,0.0,0.0,0.0,0.0,0.0,0.0,0.0,0.0,0.0,0.0,0.0,0.0,0.0,0.0,0.0,0.0,0.0,0.0,0.0,0.0,0.0,0.0,0.0,0.0,0.0,0.0,0.0,0.0
S1_D3 hbo,0.0,0.027247956403269755,0.02452316076294278,0.021798365122615803,0.0,0.02452316076294278,0.027247956403269755,0.020435967302452316,0.027247956403269755,0.027247956403269755,0.010899182561307902,0.014986376021798364,0.027247956403269755,0.027247956403269755,0.027247956403269755,0.025885558583106268,0.020435967302452316,0.02861035422343324,0.027247956403269755,0.02861035422343324,0.02861035422343324,0.027247956403269755,0.017711171662125342,0.02452316076294278,0.017711171662125342,0.010899182561307902,0.027247956403269755,0.02452316076294278,0.02861035422343324,0.02452316076294278,0.0,0.021798365122615803,0.02452316076294278,0.01907356948228883,0.0,0.0,0.0,0.02452316076294278,0.0,0.021798365122615803,0.02861035422343324,0.025885558583106268,0.0,0.01907356948228883,0.025885558583106268,0.009536784741144414,0.01907356948228883,0.02452316076294278,0.02452316076294278,0.025885558583106268,0.0027247956403269754,0.01226158038147139
S2_D1 hbo,0.0,0.02661064425770308,0.025210084033613446,0.022408963585434174,0.0,0.025210084033613446,0.02661064425770308,0.02100840336134454,0.02661064425770308,0.02661064425770308,0.011204481792717087,0.015406162464985995,0.02661064425770308,0.02661064425770308,0.02661064425770308,0.02661064425770308,0.02100840336134454,0.02661064425770308,0.02661064425770308,0.02661064425770308,0.02661064425770308,0.02661064425770308,0.018207282913165267,0.025210084033613446,0.018207282913165267,0.011204481792717087,0.02661064425770308,0.025210084033613446,0.02661064425770308,0.025210084033613446,0.0,0.022408963585434174,0.025210084033613446,0.0196078431372549,0.0,0.0,0.0,0.025210084033613446,0.0,0.022408963585434174,0.02661064425770308,0.02661064425770308,0.0,0.0196078431372549,0.02661064425770308,0.00980392156862745,0.0196078431372549,0.025210084033613446,0.025210084033613446,0.02661064425770308,0.0028011204481792717,0.012605042016806723
S2_D2 hbo,0.0,0.025559105431309903,0.025559105431309903,0.023961661341853034,0.0,0.025559105431309903,0.025559105431309903,0.022364217252396165,0.025559105431309903,0.025559105431309903,0.012779552715654952,0.01757188498402556,0.025559105431309903,0.025559105431309903,0.025559105431309903,0.025559105431309903,0.023961661341853034,0.025559105431309903,0.025559105431309903,0.025559105431309903,0.025559105431309903,0.025559105431309903,0.020766773162939296,0.025559105431309903,0.020766773162939296,0.012779552715654952,0.025559105431309903,0.025559105431309903,0.025559105431309903,0.025559105431309903,0.0,0.022364217252396165,0.025559105431309903,0.019169329073482427,0.0,0.0,0.0,0.025559105431309903,0.0,0.023961661341853034,0.025559105431309903,0.025559105431309903,0.0,0.020766773162939296,0.025559105431309903,0.007987220447284345,0.020766773162939296,0.025559105431309903,0.025559105431309903,0.025559105431309903,0.0,0.01437699680511182
S2_D4 hbo,0.0,0.0,0.0,0.0,0.0,0.0,0.0,0.0,0.0,0.0,0.0,0.0,0.0,0.0,0.0,0.0,0.0,0.0,0.0,0.0,0.0,0.0,0.0,0.0,0.0,0.0,0.0,0.0,0.0,0.0,0.0,0.0,0.0,0.0,0.0,0.0,0.0,0.0,0.0,0.0,0.0,0.0,0.0,0.0,0.0,0.0,0.0,0.0,0.0,0.0,0.0,0.0
S3_D1 hbo,0.0,0.02661064425770308,0.025210084033613446,0.022408963585434174,0.0,0.025210084033613446,0.02661064425770308,0.02100840336134454,0.02661064425770308,0.02661064425770308,0.011204481792717087,0.015406162464985995,0.02661064425770308,0.02661064425770308,0.02661064425770308,0.02661064425770308,0.02100840336134454,0.02661064425770308,0.02661064425770308,0.02661064425770308,0.02661064425770308,0.02661064425770308,0.018207282913165267,0.025210084033613446,0.018207282913165267,0.011204481792717087,0.02661064425770308,0.025210084033613446,0.02661064425770308,0.025210084033613446,0.0,0.022408963585434174,0.025210084033613446,0.0196078431372549,0.0,0.0,0.0,0.025210084033613446,0.0,0.022408963585434174,0.02661064425770308,0.02661064425770308,0.0,0.0196078431372549,0.02661064425770308,0.00980392156862745,0.0196078431372549,0.025210084033613446,0.025210084033613446,0.02661064425770308,0.0028011204481792717,0.012605042016806723
S3_D3 hbo,0.0,0.027247956403269755,0.02452316076294278,0.021798365122615803,0.0,0.02452316076294278,0.027247956403269755,0.020435967302452316,0.027247956403269755,0.027247956403269755,0.010899182561307902,0.014986376021798364,0.027247956403269755,0.027247956403269755,0.027247956403269755,0.025885558583106268,0.020435967302452316,0.02861035422343324,0.027247956403269755,0.02861035422343324,0.02861035422343324,0.027247956403269755,0.017711171662125342,0.02452316076294278,0.017711171662125342,0.010899182561307902,0.027247956403269755,0.02452316076294278,0.02861035422343324,0.02452316076294278,0.0,0.021798365122615803,0.02452316076294278,0.01907356948228883,0.0,0.0,0.0,0.02452316076294278,0.0,0.021798365122615803,0.02861035422343324,0.025885558583106268,0.0,0.01907356948228883,0.025885558583106268,0.009536784741144414,0.01907356948228883,0.02452316076294278,0.02452316076294278,0.025885558583106268,0.0027247956403269754,0.01226158038147139
S3_D4 hbo,0.0,0.02508361204013378,0.02508361204013378,0.02508361204013378,0.0,0.02508361204013378,0.02508361204013378,0.023411371237458192,0.02508361204013378,0.02508361204013378,0.013377926421404682,0.01839464882943144,0.02508361204013378,0.02508361204013378,0.02508361204013378,0.02508361204013378,0.02508361204013378,0.02508361204013378,0.02508361204013378,0.02508361204013378,0.02508361204013378,0.02508361204013378,0.021739130434782608,0.02508361204013378,0.021739130434782608,0.013377926421404682,0.02508361204013378,0.02508361204013378,0.02508361204013378,0.02508361204013378,0.0,0.023411371237458192,0.02508361204013378,0.020066889632107024,0.0,0.0,0.0,0.02508361204013378,0.0,0.02508361204013378,0.02508361204013378,0.02508361204013378,0.0,0.021739130434782608,0.02508361204013378,0.008361204013377926,0.021739130434782608,0.02508361204013378,0.02508361204013378,0.02508361204013378,0.0,0.015050167224080268
S3_D5 hbo,0.0,0.027247956403269755,0.02452316076294278,0.021798365122615803,0.0,0.02452316076294278,0.027247956403269755,0.020435967302452316,0.027247956403269755,0.027247956403269755,0.010899182561307902,0.014986376021798364,0.027247956403269755,0.027247956403269755,0.027247956403269755,0.025885558583106268,0.020435967302452316,0.02861035422343324,0.027247956403269755,0.02861035422343324,0.02861035422343324,0.027247956403269755,0.017711171662125342,0.02452316076294278,0.017711171662125342,0.010899182561307902,0.027247956403269755,0.02452316076294278,0.02861035422343324,0.02452316076294278,0.0,0.021798365122615803,0.02452316076294278,0.01907356948228883,0.0,0.0,0.0,0.02452316076294278,0.0,0.021798365122615803,0.02861035422343324,0.025885558583106268,0.0,0.01907356948228883,0.025885558583106268,0.009536784741144414,0.01907356948228883,0.02452316076294278,0.02452316076294278,0.025885558583106268,0.0027247956403269754,0.01226158038147139
S4_D2 hbo,0.0,0.02702702702702703,0.02418207681365576,0.02275960170697013,0.0,0.02418207681365576,0.02702702702702703,0.021337126600284494,0.02702702702702703,0.02702702702702703,0.011379800853485065,0.015647226173541962,0.02702702702702703,0.02702702702702703,0.02702702702702703,0.025604551920341393,0.021337126600284494,0.02844950213371266,0.02702702702702703,0.02844950213371266,0.02844950213371266,0.02702702702702703,0.01849217638691323,0.025604551920341393,0.01849217638691323,0.011379800853485065,0.02702702702702703,0.02418207681365576,0.02844950213371266,0.02418207681365576,0.0,0.021337126600284494,0.02418207681365576,0.01849217638691323,0.0,0.0,0.0,0.02418207681365576,0.0,0.02275960170697013,0.02844950213371266,0.025604551920341393,0.0,0.01991465149359886,0.025604551920341393,0.008534850640113799,0.01991465149359886,0.02418207681365576,0.02418207681365576,0.025604551920341393,0.001422475106685633,0.012802275960170697
S4_D4 hbo,0.0,0.024242424242424242,0.024242424242424242,0.024242424242424242,0.0,0.024242424242424242,0.024242424242424242,0.024242424242424242,0.024242424242424242,0.024242424242424242,0.021212121212121213,0.024242424242424242,0.024242424242424242,0.024242424242424242,0.024242424242424242,0.024242424242424242,0.024242424242424242,0.024242424242424242,0.024242424242424242,0.024242424242424242,0.024242424242424242,0.024242424242424242,0.024242424242424242,0.024242424242424242,0.024242424242424242,0.015151515151515152,0.024242424242424242,0.024242424242424242,0.024242424242424242,0.024242424242424242,0.0,0.024242424242424242,0.024242424242424242,0.024242424242424242,0.0,0.0,0.0,0.024242424242424242,0.0,0.024242424242424242,0.024242424242424242,0.024242424242424242,0.0,0.024242424242424242,0.024242424242424242,0.0030303030303030303,0.024242424242424242,0.024242424242424242,0.024242424242424242,0.024242424242424242,0.0,0.015151515151515152
S4_D6 hbo,0.0,0.024719101123595506,0.024719101123595506,0.024719101123595506,0.0,0.024719101123595506,0.024719101123595506,0.024719101123595506,0.024719101123595506,0.024719101123595506,0.017977528089887642,0.02247191011235955,0.024719101123595506,0.024719101123595506,0.024719101123595506,0.024719101123595506,0.024719101123595506,0.024719101123595506,0.024719101123595506,0.024719101123595506,0.024719101123595506,0.024719101123595506,0.024719101123595506,0.024719101123595506,0.02247191011235955,0.01348314606741573,0.024719101123595506,0.024719101123595506,0.024719101123595506,0.024719101123595506,0.0,0.024719101123595506,0.024719101123595506,0.020224719101123594,0.0,0.0,0.0,0.024719101123595506,0.0,0.024719101123595506,0.024719101123595506,0.024719101123595506,0.0,0.02247191011235955,0.024719101123595506,0.0044943820224719105,0.02247191011235955,0.024719101123595506,0.024719101123595506,0.024719101123595506,0.0,0.01348314606741573
S4_D11 hbo,0.0,0.02702702702702703,0.02418207681365576,0.02275960170697013,0.0,0.02418207681365576,0.02702702702702703,0.021337126600284494,0.02702702702702703,0.02702702702702703,0.011379800853485065,0.015647226173541962,0.02702702702702703,0.02702702702702703,0.02702702702702703,0.025604551920341393,0.021337126600284494,0.02844950213371266,0.02702702702702703,0.02844950213371266,0.02844950213371266,0.02702702702702703,0.01849217638691323,0.025604551920341393,0.01849217638691323,0.011379800853485065,0.02702702702702703,0.02418207681365576,0.02844950213371266,0.02418207681365576,0.0,0.021337126600284494,0.02418207681365576,0.01849217638691323,0.0,0.0,0.0,0.02418207681365576,0.0,0.02275960170697013,0.02844950213371266,0.025604551920341393,0.0,0.01991465149359886,0.025604551920341393,0.008534850640113799,0.01991465149359886,0.02418207681365576,0.02418207681365576,0.025604551920341393,0.001422475106685633,0.012802275960170697
S5_D3 hbo,0.0,0.027247956403269755,0.02452316076294278,0.021798365122615803,0.0,0.02452316076294278,0.027247956403269755,0.020435967302452316,0.027247956403269755,0.027247956403269755,0.010899182561307902,0.014986376021798364,0.027247956403269755,0.027247956403269755,0.027247956403269755,0.025885558583106268,0.020435967302452316,0.02861035422343324,0.027247956403269755,0.02861035422343324,0.02861035422343324,0.027247956403269755,0.017711171662125342,0.02452316076294278,0.017711171662125342,0.010899182561307902,0.027247956403269755,0.02452316076294278,0.02861035422343324,0.02452316076294278,0.0,0.021798365122615803,0.02452316076294278,0.01907356948228883,0.0,0.0,0.0,0.02452316076294278,0.0,0.021798365122615803,0.02861035422343324,0.025885558583106268,0.0,0.01907356948228883,0.025885558583106268,0.009536784741144414,0.01907356948228883,0.02452316076294278,0.02452316076294278,0.025885558583106268,0.0027247956403269754,0.01226158038147139
S5_D5 hbo,0.0,0.02702702702702703,0.02418207681365576,0.02275960170697013,0.0,0.02418207681365576,0.02702702702702703,0.021337126600284494,0.02702702702702703,0.02702702702702703,0.011379800853485065,0.015647226173541962,0.02702702702702703,0.02702702702702703,0.02702702702702703,0.025604551920341393,0.021337126600284494,0.02844950213371266,0.02702702702702703,0.02844950213371266,0.02844950213371266,0.02702702702702703,0.01849217638691323,0.025604551920341393,0.01849217638691323,0.011379800853485065,0.02702702702702703,0.02418207681365576,0.02844950213371266,0.02418207681365576,0.0,0.021337126600284494,0.02418207681365576,0.01849217638691323,0.0,0.0,0.0,0.02418207681365576,0.0,0.02275960170697013,0.02844950213371266,0.025604551920341393,0.0,0.01991465149359886,0.025604551920341393,0.008534850640113799,0.01991465149359886,0.02418207681365576,0.02418207681365576,0.025604551920341393,0.001422475106685633,0.012802275960170697
S5_D7 hbo,0.0,0.027434842249657063,0.024691358024691357,0.02194787379972565,0.0,0.024691358024691357,0.027434842249657063,0.0205761316872428,0.027434842249657063,0.027434842249657063,0.010973936899862825,0.015089163237311385,0.027434842249657063,0.027434842249657063,0.027434842249657063,0.02606310013717421,0.0205761316872428,0.027434842249657063,0.027434842249657063,0.027434842249657063,0.027434842249657063,0.027434842249657063,0.01783264746227709,0.024691358024691357,0.01783264746227709,0.010973936899862825,0.027434842249657063,0.024691358024691357,0.027434842249657063,0.024691358024691357,0.0,0.02194787379972565,0.024691358024691357,0.019204389574759947,0.0,0.0,0.0,0.024691358024691357,0.0,0.02194787379972565,0.027434842249657063,0.02606310013717421,0.0,0.019204389574759947,0.02606310013717421,0.009602194787379973,0.019204389574759947,0.024691358024691357,0.024691358024691357,0.02606310013717421,0.0027434842249657062,0.012345679012345678
S6_D4 hbo,0.0,0.02555366269165247,0.02555366269165247,0.02385008517887564,0.0,0.02555366269165247,0.02555366269165247,0.022146507666098807,0.02555366269165247,0.02555366269165247,0.013628620102214651,0.018739352640545145,0.02555366269165247,0.02555366269165247,0.02555366269165247,0.02555366269165247,0.02385008517887564,0.02555366269165247,0.02555366269165247,0.02555366269165247,0.02555366269165247,0.02555366269165247,0.022146507666098807,0.02555366269165247,0.020442930153321975,0.013628620102214651,0.02555366269165247,0.02555366269165247,0.02555366269165247,0.02555366269165247,0.0,0.022146507666098807,0.02555366269165247,0.018739352640545145,0.0,0.0,0.0,0.02555366269165247,0.0,0.02385008517887564,0.02555366269165247,0.02555366269165247,0.0,0.020442930153321975,0.02555366269165247,0.0068143100511073255,0.020442930153321975,0.02555366269165247,0.02555366269165247,0.02555366269165247,0.0,0.013628620102214651
S6_D5 hbo,0.0,0.02702702702702703,0.02418207681365576,0.02275960170697013,0.0,0.02418207681365576,0.02702702702702703,0.021337126600284494,0.02702702702702703,0.02702702702702703,0.011379800853485065,0.015647226173541962,0.02702702702702703,0.02702702702702703,0.02702702702702703,0.025604551920341393,0.021337126600284494,0.02844950213371266,0.02702702702702703,0.02844950213371266,0.02844950213371266,0.02702702702702703,0.01849217638691323,0.025604551920341393,0.01849217638691323,0.011379800853485065,0.02702702702702703,0.02418207681365576,0.02844950213371266,0.02418207681365576,0.0,0.021337126600284494,0.02418207681365576,0.01849217638691323,0.0,0.0,0.0,0.02418207681365576,0.0,0.02275960170697013,0.02844950213371266,0.025604551920341393,0.0,0.01991465149359886,0.025604551920341393,0.008534850640113799,0.01991465149359886,0.02418207681365576,0.02418207681365576,0.025604551920341393,0.001422475106685633,0.012802275960170697
S6_D6 hbo,0.0,0.02702702702702703,0.02418207681365576,0.02275960170697013,0.0,0.02418207681365576,0.02702702702702703,0.021337126600284494,0.02702702702702703,0.02702702702702703,0.011379800853485065,0.015647226173541962,0.02702702702702703,0.02702702702702703,0.02702702702702703,0.025604551920341393,0.021337126600284494,0.02844950213371266,0.02702702702702703,0.02844950213371266,0.02844950213371266,0.02702702702702703,0.01849217638691323,0.025604551920341393,0.01849217638691323,0.011379800853485065,0.02702702702702703,0.02418207681365576,0.02844950213371266,0.02418207681365576,0.0,0.021337126600284494,0.02418207681365576,0.01849217638691323,0.0,0.0,0.0,0.02418207681365576,0.0,0.02275960170697013,0.02844950213371266,0.025604551920341393,0.0,0.01991465149359886,0.025604551920341393,0.008534850640113799,0.01991465149359886,0.02418207681365576,0.02418207681365576,0.025604551920341393,0.001422475106685633,0.012802275960170697
S6_D8 hbo,0.0,0.02702702702702703,0.02418207681365576,0.02275960170697013,0.0,0.02418207681365576,0.02702702702702703,0.021337126600284494,0.02702702702702703,0.02702702702702703,0.011379800853485065,0.015647226173541962,0.02702702702702703,0.02702702702702703,0.02702702702702703,0.025604551920341393,0.021337126600284494,0.02844950213371266,0.02702702702702703,0.02844950213371266,0.02844950213371266,0.02702702702702703,0.01849217638691323,0.025604551920341393,0.01849217638691323,0.011379800853485065,0.02702702702702703,0.02418207681365576,0.02844950213371266,0.02418207681365576,0.0,0.021337126600284494,0.02418207681365576,0.01849217638691323,0.0,0.0,0.0,0.02418207681365576,0.0,0.02275960170697013,0.02844950213371266,0.025604551920341393,0.0,0.01991465149359886,0.025604551920341393,0.008534850640113799,0.01991465149359886,0.02418207681365576,0.02418207681365576,0.025604551920341393,0.001422475106685633,0.012802275960170697
S7_D5 hbo,0.0,0.027247956403269755,0.02452316076294278,0.021798365122615803,0.0,0.02452316076294278,0.027247956403269755,0.020435967302452316,0.027247956403269755,0.027247956403269755,0.010899182561307902,0.014986376021798364,0.027247956403269755,0.027247956403269755,0.027247956403269755,0.025885558583106268,0.020435967302452316,0.02861035422343324,0.027247956403269755,0.02861035422343324,0.02861035422343324,0.027247956403269755,0.017711171662125342,0.02452316076294278,0.017711171662125342,0.010899182561307902,0.027247956403269755,0.02452316076294278,0.02861035422343324,0.02452316076294278,0.0,0.021798365122615803,0.02452316076294278,0.01907356948228883,0.0,0.0,0.0,0.02452316076294278,0.0,0.021798365122615803,0.02861035422343324,0.025885558583106268,0.0,0.01907356948228883,0.025885558583106268,0.009536784741144414,0.01907356948228883,0.02452316076294278,0.02452316076294278,0.025885558583106268,0.0027247956403269754,0.01226158038147139
S7_D7 hbo,0.0,0.02702702702702703,0.02418207681365576,0.02275960170697013,0.0,0.02418207681365576,0.02702702702702703,0.021337126600284494,0.02702702702702703,0.02702702702702703,0.011379800853485065,0.015647226173541962,0.02702702702702703,0.02702702702702703,0.02702702702702703,0.025604551920341393,0.021337126600284494,0.02844950213371266,0.02702702702702703,0.02844950213371266,0.02844950213371266,0.02702702702702703,0.01849217638691323,0.025604551920341393,0.01849217638691323,0.011379800853485065,0.02702702702702703,0.02418207681365576,0.02844950213371266,0.02418207681365576,0.0,0.021337126600284494,0.02418207681365576,0.01849217638691323,0.0,0.0,0.0,0.02418207681365576,0.0,0.02275960170697013,0.02844950213371266,0.025604551920341393,0.0,0.01991465149359886,0.025604551920341393,0.008534850640113799,0.01991465149359886,0.02418207681365576,0.02418207681365576,0.025604551920341393,0.001422475106685633,0.012802275960170697
S7_D8 hbo,0.0,0.025096525096525095,0.025096525096525095,0.025096525096525095,0.0,0.025096525096525095,0.025096525096525095,0.023166023166023165,0.025096525096525095,0.025096525096525095,0.015444015444015444,0.021235521235521235,0.025096525096525095,0.025096525096525095,0.025096525096525095,0.025096525096525095,0.025096525096525095,0.025096525096525095,0.025096525096525095,0.025096525096525095,0.025096525096525095,0.025096525096525095,0.023166023166023165,0.025096525096525095,0.021235521235521235,0.013513513513513514,0.025096525096525095,0.025096525096525095,0.025096525096525095,0.025096525096525095,0.0,0.023166023166023165,0.025096525096525095,0.019305019305019305,0.0,0.0,0.0,0.025096525096525095,0.0,0.025096525096525095,0.025096525096525095,0.025096525096525095,0.0,0.021235521235521235,0.025096525096525095,0.005791505791505791,0.021235521235521235,0.025096525096525095,0.025096525096525095,0.025096525096525095,0.0,0.013513513513513514
S8_D6 hbo,0.0,0.02723146747352496,0.024205748865355523,0.0226928895612708,0.0,0.024205748865355523,0.02723146747352496,0.02118003025718608,0.02723146747352496,0.02723146747352496,0.012102874432677761,0.01664145234493192,0.02723146747352496,0.02723146747352496,0.02723146747352496,0.025718608169440244,0.0226928895612708,0.02723146747352496,0.02723146747352496,0.02723146747352496,0.02723146747352496,0.02723146747352496,0.019667170953101363,0.025718608169440244,0.019667170953101363,0.012102874432677761,0.02723146747352496,0.024205748865355523,0.02723146747352496,0.024205748865355523,0.0,0.02118003025718608,0.024205748865355523,0.018154311649016642,0.0,0.0,0.0,0.024205748865355523,0.0,0.0226928895612708,0.02723146747352496,0.025718608169440244,0.0,0.019667170953101363,0.025718608169440244,0.007564296520423601,0.019667170953101363,0.024205748865355523,0.024205748865355523,0.025718608169440244,0.0,0.01361573373676248
S8_D8 hbo,0.0,0.02462121212121212,0.02462121212121212,0.02462121212121212,0.0,0.02462121212121212,0.02462121212121212,0.02462121212121212,0.02462121212121212,0.02462121212121212,0.015151515151515152,0.020833333333333332,0.02462121212121212,0.02462121212121212,0.02462121212121212,0.02462121212121212,0.02462121212121212,0.02462121212121212,0.02462121212121212,0.02462121212121212,0.02462121212121212,0.02462121212121212,0.02462121212121212,0.02462121212121212,0.022727272727272728,0.015151515151515152,0.02462121212121212,0.02462121212121212,0.02462121212121212,0.02462121212121212,0.0,0.02462121212121212,0.02462121212121212,0.020833333333333332,0.0,0.0,0.0,0.02462121212121212,0.0,0.02462121212121212,0.02462121212121212,0.02462121212121212,0.0,0.022727272727272728,0.02462121212121212,0.007575757575757576,0.022727272727272728,0.02462121212121212,0.02462121212121212,0.02462121212121212,0.0,0.015151515151515152
S8_D15 hbo,0.0,0.023809523809523808,0.023809523809523808,0.023809523809523808,0.0,0.023809523809523808,0.023809523809523808,0.023809523809523808,0.023809523809523808,0.023809523809523808,0.020833333333333332,0.023809523809523808,0.023809523809523808,0.023809523809523808,0.023809523809523808,0.023809523809523808,0.023809523809523808,0.023809523809523808,0.023809523809523808,0.023809523809523808,0.023809523809523808,0.023809523809523808,0.023809523809523808,0.023809523809523808,0.023809523809523808,0.020833333333333332,0.023809523809523808,0.023809523809523808,0.023809523809523808,0.023809523809523808,0.0,0.023809523809523808,0.023809523809523808,0.023809523809523808,0.0,0.0,0.0,0.023809523809523808,0.0,0.023809523809523808,0.023809523809523808,0.023809523809523808,0.0,0.023809523809523808,0.023809523809523808,0.008928571428571428,0.023809523809523808,0.023809523809523808,0.023809523809523808,0.023809523809523808,0.0,0.020833333333333332
S9_D2 hbo,0.0,0.02702702702702703,0.02418207681365576,0.02275960170697013,0.0,0.02418207681365576,0.02702702702702703,0.021337126600284494,0.02702702702702703,0.02702702702702703,0.011379800853485065,0.015647226173541962,0.02702702702702703,0.02702702702702703,0.02702702702702703,0.025604551920341393,0.021337126600284494,0.02844950213371266,0.02702702702702703,0.02844950213371266,0.02844950213371266,0.02702702702702703,0.01849217638691323,0.025604551920341393,0.01849217638691323,0.011379800853485065,0.02702702702702703,0.02418207681365576,0.02844950213371266,0.02418207681365576,0.0,0.021337126600284494,0.02418207681365576,0.01849217638691323,0.0,0.0,0.0,0.02418207681365576,0.0,0.02275960170697013,0.02844950213371266,0.025604551920341393,0.0,0.01991465149359886,0.025604551920341393,0.008534850640113799,0.01991465149359886,0.02418207681365576,0.02418207681365576,0.025604551920341393,0.001422475106685633,0.012802275960170697
S9_D9 hbo,0.0,0.02635431918008785,0.024890190336749635,0.02342606149341142,0.0,0.024890190336749635,0.02635431918008785,0.021961932650073207,0.02635431918008785,0.02635431918008785,0.01171303074670571,0.016105417276720352,0.02635431918008785,0.02635431918008785,0.02635431918008785,0.02635431918008785,0.021961932650073207,0.02635431918008785,0.02635431918008785,0.02635431918008785,0.02635431918008785,0.02635431918008785,0.01903367496339678,0.02635431918008785,0.01903367496339678,0.01171303074670571,0.02635431918008785,0.024890190336749635,0.02635431918008785,0.024890190336749635,0.0,0.021961932650073207,0.024890190336749635,0.01903367496339678,0.0,0.0,0.0,0.024890190336749635,0.0,0.02342606149341142,0.02635431918008785,0.02635431918008785,0.0,0.020497803806734993,0.02635431918008785,0.008784773060029283,0.020497803806734993,0.024890190336749635,0.024890190336749635,0.02635431918008785,0.0014641288433382138,0.013177159590043924
S9_D11 hbo,0.0,0.02702702702702703,0.02418207681365576,0.02275960170697013,0.0,0.02418207681365576,0.02702702702702703,0.021337126600284494,0.02702702702702703,0.02702702702702703,0.011379800853485065,0.015647226173541962,0.02702702702702703,0.02702702702702703,0.02702702702702703,0.025604551920341393,0.021337126600284494,0.02844950213371266,0.02702702702702703,0.02844950213371266,0.02844950213371266,0.02702702702702703,0.01849217638691323,0.025604551920341393,0.01849217638691323,0.011379800853485065,0.02702702702702703,0.02418207681365576,0.02844950213371266,0.02418207681365576,0.0,0.021337126600284494,0.02418207681365576,0.01849217638691323,0.0,0.0,0.0,0.02418207681365576,0.0,0.02275960170697013,0.02844950213371266,0.025604551920341393,0.0,0.01991465149359886,0.025604551920341393,0.008534850640113799,0.01991465149359886,0.02418207681365576,0.02418207681365576,0.025604551920341393,0.001422475106685633,0.012802275960170697
S10_D9 hbo,0.0,0.02661064425770308,0.025210084033613446,0.022408963585434174,0.0,0.025210084033613446,0.02661064425770308,0.02100840336134454,0.02661064425770308,0.02661064425770308,0.011204481792717087,0.015406162464985995,0.02661064425770308,0.02661064425770308,0.02661064425770308,0.02661064425770308,0.02100840336134454,0.02661064425770308,0.02661064425770308,0.02661064425770308,0.02661064425770308,0.02661064425770308,0.018207282913165267,0.025210084033613446,0.018207282913165267,0.011204481792717087,0.02661064425770308,0.025210084033613446,0.02661064425770308,0.025210084033613446,0.0,0.022408963585434174,0.025210084033613446,0.0196078431372549,0.0,0.0,0.0,0.025210084033613446,0.0,0.022408963585434174,0.02661064425770308,0.02661064425770308,0.0,0.0196078431372549,0.02661064425770308,0.00980392156862745,0.0196078431372549,0.025210084033613446,0.025210084033613446,0.02661064425770308,0.0028011204481792717,0.012605042016806723
S10_D10 hbo,0.0,0.0,0.0,0.0,0.0,0.0,0.0,0.0,0.0,0.0,0.0,0.0,0.0,0.0,0.0,0.0,0.0,0.0,0.0,0.0,0.0,0.0,0.0,0.0,0.0,0.0,0.0,0.0,0.0,0.0,0.0,0.0,0.0,0.0,0.0,0.0,0.0,0.0,0.0,0.0,0.0,0.0,0.0,0.0,0.0,0.0,0.0,0.0,0.0,0.0,0.0,0.0
S10_D12 hbo,0.0,0.025525525525525526,0.025525525525525526,0.024024024024024024,0.0,0.025525525525525526,0.025525525525525526,0.02252252252252252,0.025525525525525526,0.025525525525525526,0.012012012012012012,0.016516516516516516,0.025525525525525526,0.025525525525525526,0.025525525525525526,0.025525525525525526,0.02252252252252252,0.025525525525525526,0.025525525525525526,0.025525525525525526,0.025525525525525526,0.025525525525525526,0.01951951951951952,0.024024024024024024,0.01951951951951952,0.012012012012012012,0.025525525525525526,0.025525525525525526,0.025525525525525526,0.025525525525525526,0.0,0.024024024024024024,0.025525525525525526,0.021021021021021023,0.0,0.0,0.0,0.025525525525525526,0.0,0.024024024024024024,0.025525525525525526,0.025525525525525526,0.0,0.021021021021021023,0.025525525525525526,0.010510510510510511,0.021021021021021023,0.025525525525525526,0.025525525525525526,0.025525525525525526,0.003003003003003003,0.013513513513513514
S11_D9 hbo,0.0,0.0273224043715847,0.025956284153005466,0.02185792349726776,0.0,0.025956284153005466,0.0273224043715847,0.020491803278688523,0.0273224043715847,0.025956284153005466,0.01092896174863388,0.015027322404371584,0.025956284153005466,0.0273224043715847,0.025956284153005466,0.0273224043715847,0.020491803278688523,0.025956284153005466,0.025956284153005466,0.025956284153005466,0.0273224043715847,0.025956284153005466,0.017759562841530054,0.02459016393442623,0.017759562841530054,0.01092896174863388,0.025956284153005466,0.02459016393442623,0.025956284153005466,0.025956284153005466,0.0,0.023224043715846996,0.025956284153005466,0.020491803278688523,0.0,0.0,0.0,0.025956284153005466,0.0,0.02185792349726776,0.025956284153005466,0.025956284153005466,0.0,0.01912568306010929,0.0273224043715847,0.01092896174863388,0.01912568306010929,0.025956284153005466,0.02459016393442623,0.0273224043715847,0.004098360655737705,0.012295081967213115
S11_D11 hbo,0.0,0.024958402662229616,0.024958402662229616,0.02329450915141431,0.0,0.024958402662229616,0.024958402662229616,0.02329450915141431,0.024958402662229616,0.024958402662229616,0.013311148086522463,0.018302828618968387,0.024958402662229616,0.024958402662229616,0.024958402662229616,0.024958402662229616,0.021630615640599003,0.024958402662229616,0.024958402662229616,0.024958402662229616,0.024958402662229616,0.024958402662229616,0.019966722129783693,0.02329450915141431,0.021630615640599003,0.013311148086522463,0.024958402662229616,0.024958402662229616,0.024958402662229616,0.024958402662229616,0.0,0.024958402662229616,0.024958402662229616,0.02329450915141431,0.0,0.0,0.0,0.024958402662229616,0.0,0.02329450915141431,0.024958402662229616,0.024958402662229616,0.0,0.02329450915141431,0.024958402662229616,0.011647254575707155,0.02329450915141431,0.024958402662229616,0.024958402662229616,0.024958402662229616,0.0033277870216306157,0.014975041597337771
S11_D12 hbo,0.0,0.0,0.0,0.0,0.0,0.0,0.0,0.0,0.0,0.0,0.0,0.0,0.0,0.0,0.0,0.0,0.0,0.0,0.0,0.0,0.0,0.0,0.0,0.0,0.0,0.0,0.0,0.0,0.0,0.0,0.0,0.0,0.0,0.0,0.0,0.0,0.0,0.0,0.0,0.0,0.0,0.0,0.0,0.0,0.0,0.0,0.0,0.0,0.0,0.0,0.0,0.0
S11_D13 hbo,0.0,0.0,0.0,0.0,0.0,0.0,0.0,0.0,0.0,0.0,0.0,0.0,0.0,0.0,0.0,0.0,0.0,0.0,0.0,0.0,0.0,0.0,0.0,0.0,0.0,0.0,0.0,0.0,0.0,0.0,0.0,0.0,0.0,0.0,0.0,0.0,0.0,0.0,0.0,0.0,0.0,0.0,0.0,0.0,0.0,0.0,0.0,0.0,0.0,0.0,0.0,0.0
S12_D10 hbo,0.0,0.0,0.0,0.0,0.0,0.0,0.0,0.0,0.0,0.0,0.0,0.0,0.0,0.0,0.0,0.0,0.0,0.0,0.0,0.0,0.0,0.0,0.0,0.0,0.0,0.0,0.0,0.0,0.0,0.0,0.0,0.0,0.0,0.0,0.0,0.0,0.0,0.0,0.0,0.0,0.0,0.0,0.0,0.0,0.0,0.0,0.0,0.0,0.0,0.0,0.0,0.0
S12_D12 hbo,0.0,0.0273224043715847,0.025956284153005466,0.02185792349726776,0.0,0.025956284153005466,0.0273224043715847,0.020491803278688523,0.0273224043715847,0.025956284153005466,0.01092896174863388,0.015027322404371584,0.025956284153005466,0.0273224043715847,0.025956284153005466,0.0273224043715847,0.020491803278688523,0.025956284153005466,0.025956284153005466,0.025956284153005466,0.0273224043715847,0.025956284153005466,0.017759562841530054,0.02459016393442623,0.017759562841530054,0.01092896174863388,0.025956284153005466,0.02459016393442623,0.025956284153005466,0.025956284153005466,0.0,0.023224043715846996,0.025956284153005466,0.020491803278688523,0.0,0.0,0.0,0.025956284153005466,0.0,0.02185792349726776,0.025956284153005466,0.025956284153005466,0.0,0.01912568306010929,0.0273224043715847,0.01092896174863388,0.01912568306010929,0.025956284153005466,0.02459016393442623,0.0273224043715847,0.004098360655737705,0.012295081967213115
S12_D14 hbo,0.0,0.0,0.0,0.0,0.0,0.0,0.0,0.0,0.0,0.0,0.0,0.0,0.0,0.0,0.0,0.0,0.0,0.0,0.0,0.0,0.0,0.0,0.0,0.0,0.0,0.0,0.0,0.0,0.0,0.0,0.0,0.0,0.0,0.0,0.0,0.0,0.0,0.0,0.0,0.0,0.0,0.0,0.0,0.0,0.0,0.0,0.0,0.0,0.0,0.0,0.0,0.0
S13_D6 hbo,0.0,0.025559105431309903,0.025559105431309903,0.023961661341853034,0.0,0.025559105431309903,0.025559105431309903,0.022364217252396165,0.025559105431309903,0.025559105431309903,0.012779552715654952,0.01757188498402556,0.025559105431309903,0.025559105431309903,0.025559105431309903,0.025559105431309903,0.023961661341853034,0.025559105431309903,0.025559105431309903,0.025559105431309903,0.025559105431309903,0.025559105431309903,0.020766773162939296,0.025559105431309903,0.020766773162939296,0.012779552715654952,0.025559105431309903,0.025559105431309903,0.025559105431309903,0.025559105431309903,0.0,0.022364217252396165,0.025559105431309903,0.019169329073482427,0.0,0.0,0.0,0.025559105431309903,0.0,0.023961661341853034,0.025559105431309903,0.025559105431309903,0.0,0.020766773162939296,0.025559105431309903,0.007987220447284345,0.020766773162939296,0.025559105431309903,0.025559105431309903,0.025559105431309903,0.0,0.01437699680511182
S13_D11 hbo,0.0,0.02702702702702703,0.02418207681365576,0.02275960170697013,0.0,0.02418207681365576,0.02702702702702703,0.021337126600284494,0.02702702702702703,0.02702702702702703,0.011379800853485065,0.015647226173541962,0.02702702702702703,0.02702702702702703,0.02702702702702703,0.025604551920341393,0.021337126600284494,0.02844950213371266,0.02702702702702703,0.02844950213371266,0.02844950213371266,0.02702702702702703,0.01849217638691323,0.025604551920341393,0.01849217638691323,0.011379800853485065,0.02702702702702703,0.02418207681365576,0.02844950213371266,0.02418207681365576,0.0,0.021337126600284494,0.02418207681365576,0.01849217638691323,0.0,0.0,0.0,0.02418207681365576,0.0,0.02275960170697013,0.02844950213371266,0.025604551920341393,0.0,0.01991465149359886,0.025604551920341393,0.008534850640113799,0.01991465149359886,0.02418207681365576,0.02418207681365576,0.025604551920341393,0.001422475106685633,0.012802275960170697
S13_D13 hbo,0.0,0.027220630372492838,0.024355300859598854,0.022922636103151862,0.0,0.024355300859598854,0.027220630372492838,0.02148997134670487,0.027220630372492838,0.027220630372492838,0.011461318051575931,0.015759312320916905,0.027220630372492838,0.027220630372492838,0.027220630372492838,0.025787965616045846,0.02148997134670487,0.027220630372492838,0.027220630372492838,0.027220630372492838,0.027220630372492838,0.027220630372492838,0.01862464183381089,0.025787965616045846,0.01862464183381089,0.011461318051575931,0.027220630372492838,0.024355300859598854,0.027220630372492838,0.024355300859598854,0.0,0.02148997134670487,0.024355300859598854,0.01862464183381089,0.0,0.0,0.0,0.024355300859598854,0.0,0.022922636103151862,0.027220630372492838,0.025787965616045846,0.0,0.02005730659025788,0.025787965616045846,0.008595988538681949,0.02005730659025788,0.024355300859598854,0.024355300859598854,0.025787965616045846,0.0014326647564469914,0.012893982808022923
S13_D15 hbo,0.0,0.0,0.0,0.0,0.0,0.0,0.0,0.0,0.0,0.0,0.0,0.0,0.0,0.0,0.0,0.0,0.0,0.0,0.0,0.0,0.0,0.0,0.0,0.0,0.0,0.0,0.0,0.0,0.0,0.0,0.0,0.0,0.0,0.0,0.0,0.0,0.0,0.0,0.0,0.0,0.0,0.0,0.0,0.0,0.0,0.0,0.0,0.0,0.0,0.0,0.0,0.0
S14_D12 hbo,0.0,0.024691358024691357,0.024691358024691357,0.024691358024691357,0.0,0.024691358024691357,0.024691358024691357,0.024691358024691357,0.024691358024691357,0.024691358024691357,0.014109347442680775,0.019400352733686066,0.024691358024691357,0.024691358024691357,0.024691358024691357,0.024691358024691357,0.024691358024691357,0.024691358024691357,0.024691358024691357,0.024691358024691357,0.024691358024691357,0.024691358024691357,0.02292768959435626,0.024691358024691357,0.02292768959435626,0.014109347442680775,0.024691358024691357,0.024691358024691357,0.024691358024691357,0.024691358024691357,0.0,0.024691358024691357,0.024691358024691357,0.021164021164021163,0.0,0.0,0.0,0.024691358024691357,0.0,0.024691358024691357,0.024691358024691357,0.024691358024691357,0.0,0.02292768959435626,0.024691358024691357,0.008818342151675485,0.02292768959435626,0.024691358024691357,0.024691358024691357,0.024691358024691357,0.0,0.015873015873015872
S14_D13 hbo,0.0,0.027434842249657063,0.024691358024691357,0.02194787379972565,0.0,0.024691358024691357,0.027434842249657063,0.0205761316872428,0.027434842249657063,0.027434842249657063,0.010973936899862825,0.015089163237311385,0.027434842249657063,0.027434842249657063,0.027434842249657063,0.02606310013717421,0.0205761316872428,0.027434842249657063,0.027434842249657063,0.027434842249657063,0.027434842249657063,0.027434842249657063,0.01783264746227709,0.024691358024691357,0.01783264746227709,0.010973936899862825,0.027434842249657063,0.024691358024691357,0.027434842249657063,0.024691358024691357,0.0,0.02194787379972565,0.024691358024691357,0.019204389574759947,0.0,0.0,0.0,0.024691358024691357,0.0,0.02194787379972565,0.027434842249657063,0.02606310013717421,0.0,0.019204389574759947,0.02606310013717421,0.009602194787379973,0.019204389574759947,0.024691358024691357,0.024691358024691357,0.02606310013717421,0.0027434842249657062,0.012345679012345678
S14_D14 hbo,0.0,0.026785714285714284,0.026785714285714284,0.020833333333333332,0.0,0.026785714285714284,0.026785714285714284,0.020833333333333332,0.026785714285714284,0.023809523809523808,0.008928571428571428,0.011904761904761904,0.023809523809523808,0.026785714285714284,0.023809523809523808,0.026785714285714284,0.017857142857142856,0.023809523809523808,0.023809523809523808,0.023809523809523808,0.026785714285714284,0.023809523809523808,0.01488095238095238,0.020833333333333332,0.017857142857142856,0.01488095238095238,0.023809523809523808,0.023809523809523808,0.023809523809523808,0.026785714285714284,0.0,0.026785714285714284,0.026785714285714284,0.026785714285714284,0.0,0.0,0.0,0.026785714285714284,0.0,0.020833333333333332,0.023809523809523808,0.023809523809523808,0.0,0.020833333333333332,0.026785714285714284,0.023809523809523808,0.020833333333333332,0.026785714285714284,0.023809523809523808,0.026785714285714284,0.008928571428571428,0.017857142857142856
S14_D16 hbo,0.0,0.024691358024691357,0.024691358024691357,0.024691358024691357,0.0,0.024691358024691357,0.024691358024691357,0.024691358024691357,0.024691358024691357,0.024691358024691357,0.014109347442680775,0.019400352733686066,0.024691358024691357,0.024691358024691357,0.024691358024691357,0.024691358024691357,0.024691358024691357,0.024691358024691357,0.024691358024691357,0.024691358024691357,0.024691358024691357,0.024691358024691357,0.02292768959435626,0.024691358024691357,0.02292768959435626,0.014109347442680775,0.024691358024691357,0.024691358024691357,0.024691358024691357,0.024691358024691357,0.0,0.024691358024691357,0.024691358024691357,0.021164021164021163,0.0,0.0,0.0,0.024691358024691357,0.0,0.024691358024691357,0.024691358024691357,0.024691358024691357,0.0,0.02292768959435626,0.024691358024691357,0.008818342151675485,0.02292768959435626,0.024691358024691357,0.024691358024691357,0.024691358024691357,0.0,0.015873015873015872
S15_D13 hbo,0.0,0.0273224043715847,0.025956284153005466,0.02185792349726776,0.0,0.025956284153005466,0.0273224043715847,0.020491803278688523,0.0273224043715847,0.025956284153005466,0.01092896174863388,0.015027322404371584,0.025956284153005466,0.0273224043715847,0.025956284153005466,0.0273224043715847,0.020491803278688523,0.025956284153005466,0.025956284153005466,0.025956284153005466,0.0273224043715847,0.025956284153005466,0.017759562841530054,0.02459016393442623,0.017759562841530054,0.01092896174863388,0.025956284153005466,0.02459016393442623,0.025956284153005466,0.025956284153005466,0.0,0.023224043715846996,0.025956284153005466,0.020491803278688523,0.0,0.0,0.0,0.025956284153005466,0.0,0.02185792349726776,0.025956284153005466,0.025956284153005466,0.0,0.01912568306010929,0.0273224043715847,0.01092896174863388,0.01912568306010929,0.025956284153005466,0.02459016393442623,0.0273224043715847,0.004098360655737705,0.012295081967213115
S15_D15 hbo,0.0,0.02635431918008785,0.024890190336749635,0.02342606149341142,0.0,0.024890190336749635,0.02635431918008785,0.021961932650073207,0.02635431918008785,0.02635431918008785,0.01171303074670571,0.016105417276720352,0.02635431918008785,0.02635431918008785,0.02635431918008785,0.02635431918008785,0.021961932650073207,0.02635431918008785,0.02635431918008785,0.02635431918008785,0.02635431918008785,0.02635431918008785,0.01903367496339678,0.02635431918008785,0.01903367496339678,0.01171303074670571,0.02635431918008785,0.024890190336749635,0.02635431918008785,0.024890190336749635,0.0,0.021961932650073207,0.024890190336749635,0.01903367496339678,0.0,0.0,0.0,0.024890190336749635,0.0,0.02342606149341142,0.02635431918008785,0.02635431918008785,0.0,0.020497803806734993,0.02635431918008785,0.008784773060029283,0.020497803806734993,0.024890190336749635,0.024890190336749635,0.02635431918008785,0.0014641288433382138,0.013177159590043924
S15_D16 hbo,0.0,0.027434842249657063,0.024691358024691357,0.02194787379972565,0.0,0.024691358024691357,0.027434842249657063,0.0205761316872428,0.027434842249657063,0.027434842249657063,0.010973936899862825,0.015089163237311385,0.027434842249657063,0.027434842249657063,0.027434842249657063,0.02606310013717421,0.0205761316872428,0.027434842249657063,0.027434842249657063,0.027434842249657063,0.027434842249657063,0.027434842249657063,0.01783264746227709,0.024691358024691357,0.01783264746227709,0.010973936899862825,0.027434842249657063,0.024691358024691357,0.027434842249657063,0.024691358024691357,0.0,0.02194787379972565,0.024691358024691357,0.019204389574759947,0.0,0.0,0.0,0.024691358024691357,0.0,0.02194787379972565,0.027434842249657063,0.02606310013717421,0.0,0.019204389574759947,0.02606310013717421,0.009602194787379973,0.019204389574759947,0.024691358024691357,0.024691358024691357,0.02606310013717421,0.0027434842249657062,0.012345679012345678
S16_D14 hbo,0.0,0.03076923076923077,0.03076923076923077,0.015384615384615385,0.0,0.03076923076923077,0.03076923076923077,0.015384615384615385,0.03076923076923077,0.023076923076923078,0.0,0.0,0.023076923076923078,0.03076923076923077,0.023076923076923078,0.03076923076923077,0.007692307692307693,0.023076923076923078,0.023076923076923078,0.023076923076923078,0.03076923076923077,0.023076923076923078,0.0,0.015384615384615385,0.007692307692307693,0.0,0.023076923076923078,0.023076923076923078,0.023076923076923078,0.03076923076923077,0.0,0.03076923076923077,0.038461538461538464,0.03076923076923077,0.0,0.0,0.0,0.038461538461538464,0.0,0.015384615384615385,0.023076923076923078,0.023076923076923078,0.0,0.015384615384615385,0.03076923076923077,0.038461538461538464,0.015384615384615385,0.038461538461538464,0.023076923076923078,0.03076923076923077,0.03076923076923077,0.007692307692307693
S16_D16 hbo,0.0,0.023872679045092837,0.023872679045092837,0.023872679045092837,0.0,0.023872679045092837,0.023872679045092837,0.023872679045092837,0.023872679045092837,0.023872679045092837,0.01856763925729443,0.021220159151193633,0.023872679045092837,0.023872679045092837,0.023872679045092837,0.023872679045092837,0.023872679045092837,0.023872679045092837,0.023872679045092837,0.023872679045092837,0.023872679045092837,0.023872679045092837,0.023872679045092837,0.023872679045092837,0.023872679045092837,0.021220159151193633,0.023872679045092837,0.023872679045092837,0.023872679045092837,0.023872679045092837,0.0,0.023872679045092837,0.023872679045092837,0.023872679045092837,0.0,0.0,0.0,0.023872679045092837,0.0,0.023872679045092837,0.023872679045092837,0.023872679045092837,0.0,0.023872679045092837,0.023872679045092837,0.010610079575596816,0.023872679045092837,0.023872679045092837,0.023872679045092837,0.023872679045092837,0.0,0.021220159151193633
