,S1_D1 hbo,S1_D3 hbo,S2_D1 hbo,S2_D2 hbo,S2_D4 hbo,S3_D1 hbo,S3_D3 hbo,S3_D4 hbo,S3_D5 hbo,S4_D2 hbo,S4_D4 hbo,S4_D6 hbo,S4_D11 hbo,S5_D3 hbo,S5_D5 hbo,S5_D7 hbo,S6_D4 hbo,S6_D5 hbo,S6_D6 hbo,S6_D8 hbo,S7_D5 hbo,S7_D7 hbo,S7_D8 hbo,S8_D6 hbo,S8_D8 hbo,S8_D15 hbo,S9_D2 hbo,S9_D9 hbo,S9_D11 hbo,S10_D9 hbo,S10_D10 hbo,S10_D12 hbo,S11_D9 hbo,S11_D11 hbo,S11_D12 hbo,S11_D13 hbo,S12_D10 hbo,S12_D12 hbo,S12_D14 hbo,S13_D6 hbo,S13_D11 hbo,S13_D13 hbo,S13_D15 hbo,S14_D12 hbo,S14_D13 hbo,S14_D14 hbo,S14_D16 hbo,S15_D13 hbo,S15_D15 hbo,S15_D16 hbo,S16_D14 hbo,S16_D16 hbo
S1_D1 hbo,0.0,0.0,0.0,0.0,0.0,0.0,0.0,0.0,0.0,0.0,0.0,0.0,0.0,0.0,0.0,0.0,0.0,0.0,0.0,0.0,0.0,0.0,0.0,0.0,0.0,0.0,0.0,0.0,0.0,0.0,0.0,0.0,0.0,0.0,0.0,0.0,0.0,0.0,0.0,0.0,0.0,0.0,0.0,0.0,0.0,0.0,0.0,0.0,0.0,0.0,0.0,0.0
S1_D3 hbo,0.0,0.0,0.0,0.0,0.0,0.0,0.0,0.0,0.0,0.0,0.0,0.0,0.0,0.0,0.0,0.0,0.0,0.0,0.0,0.0,0.0,0.0,0.0,0.0,0.0,0.0,0.0,0.0,0.0,0.0,0.0,0.0,0.0,0.0,0.0,0.0,0.0,0.0,0.0,0.0,0.0,0.0,0.0,0.0,0.0,0.0,0.0,0.0,0.0,0.0,0.0,0.0
S2_D1 hbo,0.0,0.0,0.023142509135200974,0.024360535931790498,0.02192448233861145,0.0048721071863581,0.0,0.023142509135200974,0.023142509135200974,0.0194884287454324,0.024360535931790498,0.024360535931790498,0.024360535931790498,0.0,0.020706455542021926,0.0,0.024360535931790498,0.024360535931790498,0.024360535931790498,0.0,0.024360535931790498,0.0,0.018270401948842874,0.024360535931790498,0.024360535931790498,0.024360535931790498,0.02192448233861145,0.024360535931790498,0.023142509135200974,0.023142509135200974,0.024360535931790498,0.024360535931790498,0.018270401948842874,0.024360535931790498,0.02192448233861145,0.023142509135200974,0.02192448233861145,0.02192448233861145,0.024360535931790498,0.024360535931790498,0.023142509135200974,0.024360535931790498,0.023142509135200974,0.0,0.01705237515225335,0.024360535931790498,0.024360535931790498,0.02192448233861145,0.024360535931790498,0.024360535931790498,0.024360535931790498,0.024360535931790498
S2_D2 hbo,0.0,0.0,0.020242914979757085,0.025303643724696356,0.020242914979757085,0.004048582995951417,0.0,0.020242914979757085,0.02327935222672065,0.020242914979757085,0.02631578947368421,0.024291497975708502,0.025303643724696356,0.0,0.02125506072874494,0.0,0.02631578947368421,0.024291497975708502,0.024291497975708502,0.0,0.025303643724696356,0.0,0.01720647773279352,0.02631578947368421,0.02631578947368421,0.02631578947368421,0.022267206477732792,0.02631578947368421,0.02327935222672065,0.02125506072874494,0.024291497975708502,0.02631578947368421,0.015182186234817813,0.025303643724696356,0.020242914979757085,0.02125506072874494,0.020242914979757085,0.020242914979757085,0.024291497975708502,0.024291497975708502,0.02327935222672065,0.024291497975708502,0.02125506072874494,0.0,0.018218623481781375,0.025303643724696356,0.02631578947368421,0.022267206477732792,0.02125506072874494,0.024291497975708502,0.025303643724696356,0.02631578947368421
S2_D4 hbo,0.0,0.0,0.018823529411764704,0.021176470588235293,0.027058823529411764,0.004705882352941176,0.0,0.021176470588235293,0.018823529411764704,0.015294117647058824,0.02588235294117647,0.02823529411764706,0.021176470588235293,0.0,0.01647058823529412,0.0,0.023529411764705882,0.02,0.02,0.0,0.024705882352941175,0.0,0.021176470588235293,0.027058823529411764,0.024705882352941175,0.027058823529411764,0.01764705882352941,0.02588235294117647,0.018823529411764704,0.024705882352941175,0.027058823529411764,0.02588235294117647,0.01647058823529412,0.02823529411764706,0.02823529411764706,0.02823529411764706,0.02588235294117647,0.023529411764705882,0.02823529411764706,0.02823529411764706,0.018823529411764704,0.021176470588235293,0.027058823529411764,0.0,0.012941176470588235,0.02588235294117647,0.027058823529411764,0.01764705882352941,0.021176470588235293,0.02,0.02588235294117647,0.02823529411764706
S3_D1 hbo,0.0,0.0,0.022857142857142857,0.022857142857142857,0.022857142857142857,0.017142857142857144,0.0,0.022857142857142857,0.022857142857142857,0.022857142857142857,0.022857142857142857,0.022857142857142857,0.022857142857142857,0.0,0.022857142857142857,0.0,0.022857142857142857,0.022857142857142857,0.022857142857142857,0.0,0.022857142857142857,0.0,0.022857142857142857,0.022857142857142857,0.022857142857142857,0.022857142857142857,0.022857142857142857,0.022857142857142857,0.022857142857142857,0.022857142857142857,0.022857142857142857,0.022857142857142857,0.022857142857142857,0.022857142857142857,0.022857142857142857,0.022857142857142857,0.022857142857142857,0.022857142857142857,0.022857142857142857,0.022857142857142857,0.022857142857142857,0.022857142857142857,0.022857142857142857,0.0,0.022857142857142857,0.022857142857142857,0.022857142857142857,0.022857142857142857,0.022857142857142857,0.022857142857142857,0.022857142857142857,0.022857142857142857
S3_D3 hbo,0.0,0.0,0.0,0.0,0.0,0.0,0.0,0.0,0.0,0.0,0.0,0.0,0.0,0.0,0.0,0.0,0.0,0.0,0.0,0.0,0.0,0.0,0.0,0.0,0.0,0.0,0.0,0.0,0.0,0.0,0.0,0.0,0.0,0.0,0.0,0.0,0.0,0.0,0.0,0.0,0.0,0.0,0.0,0.0,0.0,0.0,0.0,0.0,0.0,0.0,0.0,0.0
S3_D4 hbo,0.0,0.0,0.02109181141439206,0.02357320099255583,0.02481389578163772,0.004962779156327543,0.0,0.02357320099255583,0.02109181141439206,0.017369727047146403,0.02481389578163772,0.02481389578163772,0.02357320099255583,0.0,0.018610421836228287,0.0,0.02481389578163772,0.022332506203473945,0.022332506203473945,0.0,0.02481389578163772,0.0,0.02109181141439206,0.02481389578163772,0.02481389578163772,0.02481389578163772,0.019851116625310174,0.02481389578163772,0.02109181141439206,0.02481389578163772,0.02481389578163772,0.02481389578163772,0.018610421836228287,0.02481389578163772,0.02481389578163772,0.02481389578163772,0.02481389578163772,0.02481389578163772,0.02481389578163772,0.02481389578163772,0.02109181141439206,0.02357320099255583,0.02481389578163772,0.0,0.01488833746898263,0.02481389578163772,0.02481389578163772,0.019851116625310174,0.02357320099255583,0.022332506203473945,0.02481389578163772,0.02481389578163772
S3_D5 hbo,0.0,0.0,0.021436227224008574,0.02572347266881029,0.01929260450160772,0.004287245444801715,0.0,0.020364415862808145,0.02465166130760986,0.021436227224008574,0.02572347266881029,0.023579849946409433,0.02572347266881029,0.0,0.022508038585209004,0.0,0.02572347266881029,0.02572347266881029,0.02572347266881029,0.0,0.02465166130760986,0.0,0.01607717041800643,0.02572347266881029,0.02572347266881029,0.02572347266881029,0.023579849946409433,0.02572347266881029,0.02465166130760986,0.020364415862808145,0.023579849946409433,0.02572347266881029,0.01607717041800643,0.02465166130760986,0.01929260450160772,0.020364415862808145,0.01929260450160772,0.01929260450160772,0.023579849946409433,0.023579849946409433,0.02465166130760986,0.02465166130760986,0.020364415862808145,0.0,0.01929260450160772,0.02465166130760986,0.02572347266881029,0.023579849946409433,0.021436227224008574,0.02572347266881029,0.02465166130760986,0.02572347266881029
S4_D2 hbo,0.0,0.0,0.021844660194174758,0.025485436893203883,0.01820388349514563,0.0048543689320388345,0.0,0.019417475728155338,0.025485436893203883,0.024271844660194174,0.025485436893203883,0.023058252427184466,0.025485436893203883,0.0,0.025485436893203883,0.0,0.025485436893203883,0.025485436893203883,0.025485436893203883,0.0,0.024271844660194174,0.0,0.014563106796116505,0.025485436893203883,0.025485436893203883,0.025485436893203883,0.025485436893203883,0.025485436893203883,0.025485436893203883,0.019417475728155338,0.023058252427184466,0.025485436893203883,0.01820388349514563,0.024271844660194174,0.01820388349514563,0.019417475728155338,0.01820388349514563,0.01820388349514563,0.023058252427184466,0.023058252427184466,0.025485436893203883,0.024271844660194174,0.019417475728155338,0.0,0.021844660194174758,0.024271844660194174,0.025485436893203883,0.025485436893203883,0.02063106796116505,0.025485436893203883,0.024271844660194174,0.025485436893203883
S4_D4 hbo,0.0,0.0,0.01874414245548266,0.023430178069353328,0.022492970946579195,0.0037488284910965324,0.0,0.01874414245548266,0.02155576382380506,0.01874414245548266,0.02717900656044986,0.026241799437675725,0.023430178069353328,0.0,0.019681349578256794,0.0,0.02530459231490159,0.022492970946579195,0.022492970946579195,0.0,0.02530459231490159,0.0,0.016869728209934397,0.028116213683223992,0.026241799437675725,0.028116213683223992,0.020618556701030927,0.02717900656044986,0.02155576382380506,0.02155576382380506,0.026241799437675725,0.02717900656044986,0.014058106841611996,0.02717900656044986,0.022492970946579195,0.023430178069353328,0.02155576382380506,0.019681349578256794,0.026241799437675725,0.026241799437675725,0.02155576382380506,0.022492970946579195,0.023430178069353328,0.0,0.016869728209934397,0.026241799437675725,0.028116213683223992,0.020618556701030927,0.019681349578256794,0.022492970946579195,0.026241799437675725,0.028116213683223992
S4_D6 hbo,0.0,0.0,0.019940179461615155,0.02193419740777667,0.023928215353938187,0.003988035892323031,0.0,0.019940179461615155,0.019940179461615155,0.01694915254237288,0.0259222333000997,0.02991026919242273,0.02193419740777667,0.0,0.01794616151545364,0.0,0.023928215353938187,0.020937188434695914,0.020937188434695914,0.0,0.024925224327018942,0.0,0.01794616151545364,0.026919242273180457,0.024925224327018942,0.026919242273180457,0.018943170488534396,0.0259222333000997,0.019940179461615155,0.022931206380857428,0.026919242273180457,0.0259222333000997,0.014955134596211365,0.028913260219341975,0.0259222333000997,0.0259222333000997,0.022931206380857428,0.020937188434695914,0.028913260219341975,0.028913260219341975,0.019940179461615155,0.02193419740777667,0.024925224327018942,0.0,0.014955134596211365,0.0259222333000997,0.026919242273180457,0.018943170488534396,0.020937188434695914,0.020937188434695914,0.0259222333000997,0.03090727816550349
S4_D11 hbo,0.0,0.0,0.020242914979757085,0.025303643724696356,0.020242914979757085,0.004048582995951417,0.0,0.020242914979757085,0.02327935222672065,0.020242914979757085,0.02631578947368421,0.024291497975708502,0.025303643724696356,0.0,0.02125506072874494,0.0,0.02631578947368421,0.024291497975708502,0.024291497975708502,0.0,0.025303643724696356,0.0,0.01720647773279352,0.02631578947368421,0.02631578947368421,0.02631578947368421,0.022267206477732792,0.02631578947368421,0.02327935222672065,0.02125506072874494,0.024291497975708502,0.02631578947368421,0.015182186234817813,0.025303643724696356,0.020242914979757085,0.02125506072874494,0.020242914979757085,0.020242914979757085,0.024291497975708502,0.024291497975708502,0.02327935222672065,0.024291497975708502,0.02125506072874494,0.0,0.018218623481781375,0.025303643724696356,0.02631578947368421,0.022267206477732792,0.02125506072874494,0.024291497975708502,0.025303643724696356,0.02631578947368421
S5_D3 hbo,0.0,0.0,0.0,0.0,0.0,0.0,0.0,0.0,0.0,0.0,0.0,0.0,0.0,0.0,0.0,0.0,0.0,0.0,0.0,0.0,0.0,0.0,0.0,0.0,0.0,0.0,0.0,0.0,0.0,0.0,0.0,0.0,0.0,0.0,0.0,0.0,0.0,0.0,0.0,0.0,0.0,0.0,0.0,0.0,0.0,0.0,0.0,0.0,0.0,0.0,0.0,0.0
S5_D5 hbo,0.0,0.0,0.0220162224797219,0.02549246813441483,0.01853997682502897,0.004634994206257242,0.0,0.019698725376593278,0.02549246813441483,0.023174971031286212,0.02549246813441483,0.023174971031286212,0.02549246813441483,0.0,0.02433371958285052,0.0,0.02549246813441483,0.02549246813441483,0.02549246813441483,0.0,0.02433371958285052,0.0,0.015063731170336037,0.02549246813441483,0.02549246813441483,0.02549246813441483,0.02549246813441483,0.02549246813441483,0.02549246813441483,0.019698725376593278,0.023174971031286212,0.02549246813441483,0.01738122827346466,0.02433371958285052,0.01853997682502897,0.019698725376593278,0.01853997682502897,0.01853997682502897,0.023174971031286212,0.023174971031286212,0.02549246813441483,0.02433371958285052,0.019698725376593278,0.0,0.02085747392815759,0.02433371958285052,0.02549246813441483,0.02549246813441483,0.02085747392815759,0.02549246813441483,0.02433371958285052,0.02549246813441483
S5_D7 hbo,0.0,0.0,0.0,0.0,0.0,0.0,0.0,0.0,0.0,0.0,0.0,0.0,0.0,0.0,0.0,0.0,0.0,0.0,0.0,0.0,0.0,0.0,0.0,0.0,0.0,0.0,0.0,0.0,0.0,0.0,0.0,0.0,0.0,0.0,0.0,0.0,0.0,0.0,0.0,0.0,0.0,0.0,0.0,0.0,0.0,0.0,0.0,0.0,0.0,0.0,0.0,0.0
S6_D4 hbo,0.0,0.0,0.019743336623889437,0.023692003948667325,0.02171767028627838,0.003948667324777887,0.0,0.019743336623889437,0.02171767028627838,0.018756169792694965,0.02665350444225074,0.02566633761105627,0.023692003948667325,0.0,0.019743336623889437,0.0,0.02566633761105627,0.022704837117472853,0.022704837117472853,0.0,0.02665350444225074,0.0,0.017769002961500493,0.02665350444225074,0.02665350444225074,0.02665350444225074,0.02073050345508391,0.02665350444225074,0.02171767028627838,0.022704837117472853,0.02566633761105627,0.02665350444225074,0.014807502467917079,0.02665350444225074,0.02171767028627838,0.022704837117472853,0.02171767028627838,0.02073050345508391,0.02566633761105627,0.02566633761105627,0.02171767028627838,0.023692003948667325,0.022704837117472853,0.0,0.01678183613030602,0.02665350444225074,0.02665350444225074,0.02073050345508391,0.02073050345508391,0.022704837117472853,0.02665350444225074,0.02665350444225074
S6_D5 hbo,0.0,0.0,0.020768431983385256,0.02596053997923157,0.01973001038421599,0.004153686396677051,0.0,0.020768431983385256,0.023883696780893044,0.020768431983385256,0.02596053997923157,0.023883696780893044,0.02596053997923157,0.0,0.021806853582554516,0.0,0.02596053997923157,0.024922118380062305,0.024922118380062305,0.0,0.024922118380062305,0.0,0.016614745586708203,0.02596053997923157,0.02596053997923157,0.02596053997923157,0.02284527518172378,0.02596053997923157,0.023883696780893044,0.020768431983385256,0.023883696780893044,0.02596053997923157,0.01557632398753894,0.024922118380062305,0.01973001038421599,0.020768431983385256,0.01973001038421599,0.01973001038421599,0.023883696780893044,0.023883696780893044,0.023883696780893044,0.024922118380062305,0.020768431983385256,0.0,0.018691588785046728,0.024922118380062305,0.02596053997923157,0.02284527518172378,0.021806853582554516,0.024922118380062305,0.024922118380062305,0.02596053997923157
S6_D6 hbo,0.0,0.0,0.020768431983385256,0.02596053997923157,0.01973001038421599,0.004153686396677051,0.0,0.020768431983385256,0.023883696780893044,0.020768431983385256,0.02596053997923157,0.023883696780893044,0.02596053997923157,0.0,0.021806853582554516,0.0,0.02596053997923157,0.024922118380062305,0.024922118380062305,0.0,0.024922118380062305,0.0,0.016614745586708203,0.02596053997923157,0.02596053997923157,0.02596053997923157,0.02284527518172378,0.02596053997923157,0.023883696780893044,0.020768431983385256,0.023883696780893044,0.02596053997923157,0.01557632398753894,0.024922118380062305,0.01973001038421599,0.020768431983385256,0.01973001038421599,0.01973001038421599,0.023883696780893044,0.023883696780893044,0.023883696780893044,0.024922118380062305,0.020768431983385256,0.0,0.018691588785046728,0.024922118380062305,0.02596053997923157,0.02284527518172378,0.021806853582554516,0.024922118380062305,0.024922118380062305,0.02596053997923157
S6_D8 hbo,0.0,0.0,0.0,0.0,0.0,0.0,0.0,0.0,0.0,0.0,0.0,0.0,0.0,0.0,0.0,0.0,0.0,0.0,0.0,0.0,0.0,0.0,0.0,0.0,0.0,0.0,0.0,0.0,0.0,0.0,0.0,0.0,0.0,0.0,0.0,0.0,0.0,0.0,0.0,0.0,0.0,0.0,0.0,0.0,0.0,0.0,0.0,0.0,0.0,0.0,0.0,0.0
S7_D5 hbo,0.0,0.0,0.01990049751243781,0.022885572139303482,0.022885572139303482,0.003980099502487562,0.0,0.01990049751243781,0.020895522388059702,0.01791044776119403,0.026865671641791045,0.026865671641791045,0.022885572139303482,0.0,0.01890547263681592,0.0,0.024875621890547265,0.021890547263681594,0.021890547263681594,0.0,0.025870646766169153,0.0,0.01791044776119403,0.026865671641791045,0.025870646766169153,0.026865671641791045,0.01990049751243781,0.026865671641791045,0.020895522388059702,0.022885572139303482,0.026865671641791045,0.026865671641791045,0.014925373134328358,0.026865671641791045,0.022885572139303482,0.023880597014925373,0.022885572139303482,0.020895522388059702,0.026865671641791045,0.026865671641791045,0.020895522388059702,0.022885572139303482,0.023880597014925373,0.0,0.015920398009950248,0.026865671641791045,0.026865671641791045,0.01990049751243781,0.020895522388059702,0.021890547263681594,0.026865671641791045,0.026865671641791045
S7_D7 hbo,0.0,0.0,0.0,0.0,0.0,0.0,0.0,0.0,0.0,0.0,0.0,0.0,0.0,0.0,0.0,0.0,0.0,0.0,0.0,0.0,0.0,0.0,0.0,0.0,0.0,0.0,0.0,0.0,0.0,0.0,0.0,0.0,0.0,0.0,0.0,0.0,0.0,0.0,0.0,0.0,0.0,0.0,0.0,0.0,0.0,0.0,0.0,0.0,0.0,0.0,0.0,0.0
S7_D8 hbo,0.0,0.0,0.019005847953216373,0.021929824561403508,0.02631578947368421,0.005847953216374269,0.0,0.021929824561403508,0.019005847953216373,0.014619883040935672,0.02631578947368421,0.02631578947368421,0.021929824561403508,0.0,0.01608187134502924,0.0,0.024853801169590642,0.02046783625730994,0.02046783625730994,0.0,0.02631578947368421,0.0,0.024853801169590642,0.02631578947368421,0.02631578947368421,0.02631578947368421,0.017543859649122806,0.02631578947368421,0.019005847953216373,0.02631578947368421,0.02631578947368421,0.02631578947368421,0.01608187134502924,0.02631578947368421,0.02631578947368421,0.02631578947368421,0.02631578947368421,0.024853801169590642,0.02631578947368421,0.02631578947368421,0.019005847953216373,0.021929824561403508,0.02631578947368421,0.0,0.011695906432748537,0.02631578947368421,0.02631578947368421,0.017543859649122806,0.021929824561403508,0.02046783625730994,0.02631578947368421,0.02631578947368421
S8_D6 hbo,0.0,0.0,0.0186219739292365,0.023277467411545624,0.0223463687150838,0.0037243947858473,0.0,0.0186219739292365,0.021415270018621976,0.0186219739292365,0.027001862197392923,0.027001862197392923,0.023277467411545624,0.0,0.019553072625698324,0.0,0.025139664804469275,0.0223463687150838,0.0223463687150838,0.0,0.025139664804469275,0.0,0.01675977653631285,0.027932960893854747,0.0260707635009311,0.027932960893854747,0.020484171322160148,0.027001862197392923,0.021415270018621976,0.021415270018621976,0.0260707635009311,0.027001862197392923,0.013966480446927373,0.027932960893854747,0.023277467411545624,0.024208566108007448,0.021415270018621976,0.019553072625698324,0.027001862197392923,0.027001862197392923,0.021415270018621976,0.0223463687150838,0.023277467411545624,0.0,0.01675977653631285,0.0260707635009311,0.027932960893854747,0.020484171322160148,0.019553072625698324,0.0223463687150838,0.0260707635009311,0.028864059590316574
S8_D8 hbo,0.0,0.0,0.018975332068311195,0.023719165085388995,0.021821631878557873,0.003795066413662239,0.0,0.018975332068311195,0.021821631878557873,0.018975332068311195,0.027514231499051234,0.025616698292220113,0.023719165085388995,0.0,0.019924098671726755,0.0,0.025616698292220113,0.022770398481973434,0.022770398481973434,0.0,0.025616698292220113,0.0,0.017077798861480076,0.027514231499051234,0.026565464895635674,0.027514231499051234,0.020872865275142316,0.027514231499051234,0.021821631878557873,0.021821631878557873,0.025616698292220113,0.027514231499051234,0.014231499051233396,0.026565464895635674,0.021821631878557873,0.022770398481973434,0.021821631878557873,0.019924098671726755,0.025616698292220113,0.025616698292220113,0.021821631878557873,0.022770398481973434,0.022770398481973434,0.0,0.017077798861480076,0.026565464895635674,0.027514231499051234,0.020872865275142316,0.019924098671726755,0.022770398481973434,0.026565464895635674,0.027514231499051234
S8_D15 hbo,0.0,0.0,0.0186219739292365,0.023277467411545624,0.0223463687150838,0.0037243947858473,0.0,0.0186219739292365,0.021415270018621976,0.0186219739292365,0.027001862197392923,0.027001862197392923,0.023277467411545624,0.0,0.019553072625698324,0.0,0.025139664804469275,0.0223463687150838,0.0223463687150838,0.0,0.025139664804469275,0.0,0.01675977653631285,0.027932960893854747,0.0260707635009311,0.027932960893854747,0.020484171322160148,0.027001862197392923,0.021415270018621976,0.021415270018621976,0.0260707635009311,0.027001862197392923,0.013966480446927373,0.027932960893854747,0.023277467411545624,0.024208566108007448,0.021415270018621976,0.019553072625698324,0.027001862197392923,0.027001862197392923,0.021415270018621976,0.0223463687150838,0.023277467411545624,0.0,0.01675977653631285,0.0260707635009311,0.027932960893854747,0.020484171322160148,0.019553072625698324,0.0223463687150838,0.0260707635009311,0.028864059590316574
S9_D2 hbo,0.0,0.0,0.022222222222222223,0.025555555555555557,0.01888888888888889,0.0044444444444444444,0.0,0.02,0.025555555555555557,0.022222222222222223,0.025555555555555557,0.023333333333333334,0.025555555555555557,0.0,0.023333333333333334,0.0,0.025555555555555557,0.025555555555555557,0.025555555555555557,0.0,0.024444444444444446,0.0,0.015555555555555555,0.025555555555555557,0.025555555555555557,0.025555555555555557,0.024444444444444446,0.025555555555555557,0.025555555555555557,0.02,0.023333333333333334,0.025555555555555557,0.016666666666666666,0.024444444444444446,0.01888888888888889,0.02,0.01888888888888889,0.01888888888888889,0.023333333333333334,0.023333333333333334,0.025555555555555557,0.024444444444444446,0.02,0.0,0.02,0.024444444444444446,0.025555555555555557,0.024444444444444446,0.021111111111111112,0.025555555555555557,0.024444444444444446,0.025555555555555557
S9_D9 hbo,0.0,0.0,0.01874414245548266,0.023430178069353328,0.022492970946579195,0.0037488284910965324,0.0,0.01874414245548266,0.02155576382380506,0.01874414245548266,0.02717900656044986,0.026241799437675725,0.023430178069353328,0.0,0.019681349578256794,0.0,0.02530459231490159,0.022492970946579195,0.022492970946579195,0.0,0.02530459231490159,0.0,0.016869728209934397,0.028116213683223992,0.026241799437675725,0.028116213683223992,0.020618556701030927,0.02717900656044986,0.02155576382380506,0.02155576382380506,0.026241799437675725,0.02717900656044986,0.014058106841611996,0.02717900656044986,0.022492970946579195,0.023430178069353328,0.02155576382380506,0.019681349578256794,0.026241799437675725,0.026241799437675725,0.02155576382380506,0.022492970946579195,0.023430178069353328,0.0,0.016869728209934397,0.026241799437675725,0.028116213683223992,0.020618556701030927,0.019681349578256794,0.022492970946579195,0.026241799437675725,0.028116213683223992
S9_D11 hbo,0.0,0.0,0.021436227224008574,0.02572347266881029,0.01929260450160772,0.004287245444801715,0.0,0.020364415862808145,0.02465166130760986,0.021436227224008574,0.02572347266881029,0.023579849946409433,0.02572347266881029,0.0,0.022508038585209004,0.0,0.02572347266881029,0.02572347266881029,0.02572347266881029,0.0,0.02465166130760986,0.0,0.01607717041800643,0.02572347266881029,0.02572347266881029,0.02572347266881029,0.023579849946409433,0.02572347266881029,0.02465166130760986,0.020364415862808145,0.023579849946409433,0.02572347266881029,0.01607717041800643,0.02465166130760986,0.01929260450160772,0.020364415862808145,0.01929260450160772,0.01929260450160772,0.023579849946409433,0.023579849946409433,0.02465166130760986,0.02465166130760986,0.020364415862808145,0.0,0.01929260450160772,0.02465166130760986,0.02572347266881029,0.023579849946409433,0.021436227224008574,0.02572347266881029,0.02465166130760986,0.02572347266881029
S10_D9 hbo,0.0,0.0,0.0194954128440367,0.021788990825688075,0.026376146788990827,0.0045871559633027525,0.0,0.021788990825688075,0.0194954128440367,0.016055045871559634,0.026376146788990827,0.026376146788990827,0.021788990825688075,0.0,0.017201834862385322,0.0,0.02408256880733945,0.020642201834862386,0.020642201834862386,0.0,0.02522935779816514,0.0,0.020642201834862386,0.026376146788990827,0.02522935779816514,0.026376146788990827,0.01834862385321101,0.026376146788990827,0.0194954128440367,0.02522935779816514,0.026376146788990827,0.026376146788990827,0.017201834862385322,0.026376146788990827,0.026376146788990827,0.026376146788990827,0.026376146788990827,0.02408256880733945,0.026376146788990827,0.026376146788990827,0.0194954128440367,0.021788990825688075,0.026376146788990827,0.0,0.013761467889908258,0.026376146788990827,0.026376146788990827,0.01834862385321101,0.021788990825688075,0.020642201834862386,0.026376146788990827,0.026376146788990827
S10_D10 hbo,0.0,0.0,0.02012072434607646,0.022132796780684104,0.02414486921529175,0.004024144869215292,0.0,0.02012072434607646,0.02012072434607646,0.01710261569416499,0.026156941649899398,0.028169014084507043,0.022132796780684104,0.0,0.018108651911468814,0.0,0.02414486921529175,0.02112676056338028,0.02112676056338028,0.0,0.025150905432595575,0.0,0.018108651911468814,0.02716297786720322,0.025150905432595575,0.02716297786720322,0.019114688128772636,0.026156941649899398,0.02012072434607646,0.023138832997987926,0.02716297786720322,0.026156941649899398,0.015090543259557344,0.028169014084507043,0.025150905432595575,0.026156941649899398,0.023138832997987926,0.02112676056338028,0.028169014084507043,0.028169014084507043,0.02012072434607646,0.022132796780684104,0.025150905432595575,0.0,0.015090543259557344,0.026156941649899398,0.02716297786720322,0.019114688128772636,0.02112676056338028,0.02112676056338028,0.026156941649899398,0.028169014084507043
S10_D12 hbo,0.0,0.0,0.01874414245548266,0.023430178069353328,0.022492970946579195,0.0037488284910965324,0.0,0.01874414245548266,0.02155576382380506,0.01874414245548266,0.02717900656044986,0.026241799437675725,0.023430178069353328,0.0,0.019681349578256794,0.0,0.02530459231490159,0.022492970946579195,0.022492970946579195,0.0,0.02530459231490159,0.0,0.016869728209934397,0.028116213683223992,0.026241799437675725,0.028116213683223992,0.020618556701030927,0.02717900656044986,0.02155576382380506,0.02155576382380506,0.026241799437675725,0.02717900656044986,0.014058106841611996,0.02717900656044986,0.022492970946579195,0.023430178069353328,0.02155576382380506,0.019681349578256794,0.026241799437675725,0.026241799437675725,0.02155576382380506,0.022492970946579195,0.023430178069353328,0.0,0.016869728209934397,0.026241799437675725,0.028116213683223992,0.020618556701030927,0.019681349578256794,0.022492970946579195,0.026241799437675725,0.028116213683223992
S11_D9 hbo,0.0,0.0,0.023474178403755867,0.023474178403755867,0.023474178403755867,0.006259780907668232,0.0,0.023474178403755867,0.023474178403755867,0.02034428794992175,0.023474178403755867,0.023474178403755867,0.023474178403755867,0.0,0.02190923317683881,0.0,0.023474178403755867,0.023474178403755867,0.023474178403755867,0.0,0.023474178403755867,0.0,0.02034428794992175,0.023474178403755867,0.023474178403755867,0.023474178403755867,0.023474178403755867,0.023474178403755867,0.023474178403755867,0.023474178403755867,0.023474178403755867,0.023474178403755867,0.02190923317683881,0.023474178403755867,0.023474178403755867,0.023474178403755867,0.023474178403755867,0.023474178403755867,0.023474178403755867,0.023474178403755867,0.023474178403755867,0.023474178403755867,0.023474178403755867,0.0,0.017214397496087636,0.023474178403755867,0.023474178403755867,0.023474178403755867,0.023474178403755867,0.023474178403755867,0.023474178403755867,0.023474178403755867
S11_D11 hbo,0.0,0.0,0.01936108422071636,0.022265246853823813,0.023233301064859633,0.003872216844143272,0.0,0.01936108422071636,0.02032913843175218,0.017424975798644726,0.026137463697967087,0.030009680542110357,0.022265246853823813,0.0,0.018393030009680542,0.0,0.02420135527589545,0.021297192642787996,0.021297192642787996,0.0,0.02516940948693127,0.0,0.017424975798644726,0.027105517909002903,0.02516940948693127,0.027105517909002903,0.01936108422071636,0.026137463697967087,0.02032913843175218,0.022265246853823813,0.027105517909002903,0.026137463697967087,0.01452081316553727,0.02904162633107454,0.02516940948693127,0.02516940948693127,0.022265246853823813,0.02032913843175218,0.02904162633107454,0.02904162633107454,0.02032913843175218,0.022265246853823813,0.02420135527589545,0.0,0.015488867376573089,0.026137463697967087,0.027105517909002903,0.01936108422071636,0.02032913843175218,0.021297192642787996,0.026137463697967087,0.030009680542110357
S11_D12 hbo,0.0,0.0,0.018648018648018648,0.02097902097902098,0.026806526806526808,0.004662004662004662,0.0,0.02097902097902098,0.018648018648018648,0.015151515151515152,0.02564102564102564,0.030303030303030304,0.02097902097902098,0.0,0.016317016317016316,0.0,0.023310023310023312,0.019813519813519812,0.019813519813519812,0.0,0.024475524475524476,0.0,0.02097902097902098,0.026806526806526808,0.024475524475524476,0.026806526806526808,0.017482517482517484,0.02564102564102564,0.018648018648018648,0.024475524475524476,0.026806526806526808,0.02564102564102564,0.016317016317016316,0.029137529137529136,0.029137529137529136,0.027972027972027972,0.02564102564102564,0.023310023310023312,0.029137529137529136,0.029137529137529136,0.018648018648018648,0.02097902097902098,0.026806526806526808,0.0,0.01282051282051282,0.02564102564102564,0.026806526806526808,0.017482517482517484,0.02097902097902098,0.019813519813519812,0.02564102564102564,0.030303030303030304
S11_D13 hbo,0.0,0.0,0.01893095768374165,0.021158129175946547,0.026726057906458798,0.004454342984409799,0.0,0.021158129175946547,0.01893095768374165,0.015590200445434299,0.025612472160356347,0.028953229398663696,0.021158129175946547,0.0,0.01670378619153675,0.0,0.02338530066815145,0.0200445434298441,0.0200445434298441,0.0,0.024498886414253896,0.0,0.0200445434298441,0.026726057906458798,0.024498886414253896,0.026726057906458798,0.017817371937639197,0.025612472160356347,0.01893095768374165,0.024498886414253896,0.026726057906458798,0.025612472160356347,0.01670378619153675,0.028953229398663696,0.028953229398663696,0.02783964365256125,0.025612472160356347,0.02338530066815145,0.028953229398663696,0.028953229398663696,0.01893095768374165,0.021158129175946547,0.026726057906458798,0.0,0.013363028953229399,0.025612472160356347,0.026726057906458798,0.017817371937639197,0.021158129175946547,0.0200445434298441,0.025612472160356347,0.028953229398663696
S12_D10 hbo,0.0,0.0,0.018979833926453145,0.021352313167259787,0.027283511269276393,0.004744958481613286,0.0,0.021352313167259787,0.018979833926453145,0.01542111506524318,0.02609727164887307,0.027283511269276393,0.021352313167259787,0.0,0.0166073546856465,0.0,0.02372479240806643,0.020166073546856466,0.020166073546856466,0.0,0.02491103202846975,0.0,0.021352313167259787,0.027283511269276393,0.02491103202846975,0.027283511269276393,0.017793594306049824,0.02609727164887307,0.018979833926453145,0.02491103202846975,0.027283511269276393,0.02609727164887307,0.0166073546856465,0.027283511269276393,0.027283511269276393,0.027283511269276393,0.02609727164887307,0.02372479240806643,0.027283511269276393,0.027283511269276393,0.018979833926453145,0.021352313167259787,0.027283511269276393,0.0,0.013048635824436536,0.02609727164887307,0.027283511269276393,0.017793594306049824,0.021352313167259787,0.020166073546856466,0.02609727164887307,0.027283511269276393
S12_D12 hbo,0.0,0.0,0.01972872996300863,0.02219482120838471,0.025893958076448828,0.004932182490752158,0.0,0.02219482120838471,0.01972872996300863,0.016029593094944512,0.025893958076448828,0.025893958076448828,0.02219482120838471,0.0,0.01726263871763255,0.0,0.02466091245376079,0.02096177558569667,0.02096177558569667,0.0,0.025893958076448828,0.0,0.02219482120838471,0.025893958076448828,0.025893958076448828,0.025893958076448828,0.018495684340320593,0.025893958076448828,0.01972872996300863,0.025893958076448828,0.025893958076448828,0.025893958076448828,0.01726263871763255,0.025893958076448828,0.025893958076448828,0.025893958076448828,0.025893958076448828,0.02466091245376079,0.025893958076448828,0.025893958076448828,0.01972872996300863,0.02219482120838471,0.025893958076448828,0.0,0.013563501849568433,0.025893958076448828,0.025893958076448828,0.018495684340320593,0.02219482120838471,0.02096177558569667,0.025893958076448828,0.025893958076448828
S12_D14 hbo,0.0,0.0,0.01996007984031936,0.021956087824351298,0.023952095808383235,0.003992015968063872,0.0,0.01996007984031936,0.01996007984031936,0.016966067864271458,0.02594810379241517,0.029940119760479042,0.021956087824351298,0.0,0.017964071856287425,0.0,0.023952095808383235,0.020958083832335328,0.020958083832335328,0.0,0.0249500998003992,0.0,0.017964071856287425,0.02694610778443114,0.0249500998003992,0.02694610778443114,0.018962075848303395,0.02594810379241517,0.01996007984031936,0.022954091816367265,0.02694610778443114,0.02594810379241517,0.014970059880239521,0.028942115768463075,0.02594810379241517,0.02594810379241517,0.022954091816367265,0.020958083832335328,0.028942115768463075,0.028942115768463075,0.01996007984031936,0.021956087824351298,0.0249500998003992,0.0,0.014970059880239521,0.02594810379241517,0.02694610778443114,0.018962075848303395,0.020958083832335328,0.020958083832335328,0.02594810379241517,0.029940119760479042
S13_D6 hbo,0.0,0.0,0.01996007984031936,0.021956087824351298,0.023952095808383235,0.003992015968063872,0.0,0.01996007984031936,0.01996007984031936,0.016966067864271458,0.02594810379241517,0.029940119760479042,0.021956087824351298,0.0,0.017964071856287425,0.0,0.023952095808383235,0.020958083832335328,0.020958083832335328,0.0,0.0249500998003992,0.0,0.017964071856287425,0.02694610778443114,0.0249500998003992,0.02694610778443114,0.018962075848303395,0.02594810379241517,0.01996007984031936,0.022954091816367265,0.02694610778443114,0.02594810379241517,0.014970059880239521,0.028942115768463075,0.02594810379241517,0.02594810379241517,0.022954091816367265,0.020958083832335328,0.028942115768463075,0.028942115768463075,0.01996007984031936,0.021956087824351298,0.0249500998003992,0.0,0.014970059880239521,0.02594810379241517,0.02694610778443114,0.018962075848303395,0.020958083832335328,0.020958083832335328,0.02594810379241517,0.029940119760479042
S13_D11 hbo,0.0,0.0,0.021436227224008574,0.02572347266881029,0.01929260450160772,0.004287245444801715,0.0,0.020364415862808145,0.02465166130760986,0.021436227224008574,0.02572347266881029,0.023579849946409433,0.02572347266881029,0.0,0.022508038585209004,0.0,0.02572347266881029,0.02572347266881029,0.02572347266881029,0.0,0.02465166130760986,0.0,0.01607717041800643,0.02572347266881029,0.02572347266881029,0.02572347266881029,0.023579849946409433,0.02572347266881029,0.02465166130760986,0.020364415862808145,0.023579849946409433,0.02572347266881029,0.01607717041800643,0.02465166130760986,0.01929260450160772,0.020364415862808145,0.01929260450160772,0.01929260450160772,0.023579849946409433,0.023579849946409433,0.02465166130760986,0.02465166130760986,0.020364415862808145,0.0,0.01929260450160772,0.02465166130760986,0.02572347266881029,0.023579849946409433,0.021436227224008574,0.02572347266881029,0.02465166130760986,0.02572347266881029
S13_D13 hbo,0.0,0.0,0.021299254526091587,0.024494142705005325,0.021299254526091587,0.004259850905218318,0.0,0.021299254526091587,0.022364217252396165,0.019169329073482427,0.025559105431309903,0.025559105431309903,0.024494142705005325,0.0,0.02023429179978701,0.0,0.025559105431309903,0.023429179978700747,0.023429179978700747,0.0,0.025559105431309903,0.0,0.01810436634717785,0.025559105431309903,0.025559105431309903,0.025559105431309903,0.021299254526091587,0.025559105431309903,0.022364217252396165,0.022364217252396165,0.025559105431309903,0.025559105431309903,0.01597444089456869,0.025559105431309903,0.021299254526091587,0.022364217252396165,0.021299254526091587,0.021299254526091587,0.025559105431309903,0.025559105431309903,0.022364217252396165,0.024494142705005325,0.022364217252396165,0.0,0.01703940362087327,0.025559105431309903,0.025559105431309903,0.021299254526091587,0.022364217252396165,0.023429179978700747,0.025559105431309903,0.025559105431309903
S13_D15 hbo,0.0,0.0,0.01905829596412556,0.021300448430493273,0.026905829596412557,0.004484304932735426,0.0,0.021300448430493273,0.01905829596412556,0.01569506726457399,0.0257847533632287,0.028026905829596414,0.021300448430493273,0.0,0.016816143497757848,0.0,0.023542600896860985,0.020179372197309416,0.020179372197309416,0.0,0.02466367713004484,0.0,0.020179372197309416,0.026905829596412557,0.02466367713004484,0.026905829596412557,0.017937219730941704,0.0257847533632287,0.01905829596412556,0.02466367713004484,0.026905829596412557,0.0257847533632287,0.016816143497757848,0.028026905829596414,0.028026905829596414,0.028026905829596414,0.0257847533632287,0.023542600896860985,0.028026905829596414,0.028026905829596414,0.01905829596412556,0.021300448430493273,0.026905829596412557,0.0,0.013452914798206279,0.0257847533632287,0.026905829596412557,0.017937219730941704,0.021300448430493273,0.020179372197309416,0.0257847533632287,0.028026905829596414
S14_D12 hbo,0.0,0.0,0.0,0.0,0.0,0.0,0.0,0.0,0.0,0.0,0.0,0.0,0.0,0.0,0.0,0.0,0.0,0.0,0.0,0.0,0.0,0.0,0.0,0.0,0.0,0.0,0.0,0.0,0.0,0.0,0.0,0.0,0.0,0.0,0.0,0.0,0.0,0.0,0.0,0.0,0.0,0.0,0.0,0.0,0.0,0.0,0.0,0.0,0.0,0.0,0.0,0.0
S14_D13 hbo,0.0,0.0,0.021592442645074223,0.02564102564102564,0.017543859649122806,0.005398110661268556,0.0,0.018893387314439947,0.02564102564102564,0.02564102564102564,0.02564102564102564,0.022941970310391364,0.02564102564102564,0.0,0.02564102564102564,0.0,0.02564102564102564,0.02564102564102564,0.02564102564102564,0.0,0.024291497975708502,0.0,0.01349527665317139,0.02564102564102564,0.02564102564102564,0.02564102564102564,0.02564102564102564,0.02564102564102564,0.02564102564102564,0.018893387314439947,0.022941970310391364,0.02564102564102564,0.017543859649122806,0.024291497975708502,0.017543859649122806,0.018893387314439947,0.017543859649122806,0.017543859649122806,0.022941970310391364,0.022941970310391364,0.02564102564102564,0.024291497975708502,0.018893387314439947,0.0,0.024291497975708502,0.024291497975708502,0.02564102564102564,0.02564102564102564,0.020242914979757085,0.02564102564102564,0.024291497975708502,0.02564102564102564
S14_D14 hbo,0.0,0.0,0.019646365422396856,0.022593320235756387,0.023575638506876228,0.003929273084479371,0.0,0.019646365422396856,0.0206286836935167,0.01768172888015717,0.026522593320235755,0.0275049115913556,0.022593320235756387,0.0,0.018664047151277015,0.0,0.02455795677799607,0.021611001964636542,0.021611001964636542,0.0,0.025540275049115914,0.0,0.01768172888015717,0.0275049115913556,0.025540275049115914,0.0275049115913556,0.019646365422396856,0.026522593320235755,0.0206286836935167,0.022593320235756387,0.0275049115913556,0.026522593320235755,0.014734774066797643,0.0275049115913556,0.023575638506876228,0.02455795677799607,0.022593320235756387,0.0206286836935167,0.0275049115913556,0.0275049115913556,0.0206286836935167,0.022593320235756387,0.02455795677799607,0.0,0.015717092337917484,0.026522593320235755,0.0275049115913556,0.019646365422396856,0.0206286836935167,0.021611001964636542,0.026522593320235755,0.0275049115913556
S14_D16 hbo,0.0,0.0,0.0186219739292365,0.023277467411545624,0.0223463687150838,0.0037243947858473,0.0,0.0186219739292365,0.021415270018621976,0.0186219739292365,0.027001862197392923,0.027001862197392923,0.023277467411545624,0.0,0.019553072625698324,0.0,0.025139664804469275,0.0223463687150838,0.0223463687150838,0.0,0.025139664804469275,0.0,0.01675977653631285,0.027932960893854747,0.0260707635009311,0.027932960893854747,0.020484171322160148,0.027001862197392923,0.021415270018621976,0.021415270018621976,0.0260707635009311,0.027001862197392923,0.013966480446927373,0.027932960893854747,0.023277467411545624,0.024208566108007448,0.021415270018621976,0.019553072625698324,0.027001862197392923,0.027001862197392923,0.021415270018621976,0.0223463687150838,0.023277467411545624,0.0,0.01675977653631285,0.0260707635009311,0.027932960893854747,0.020484171322160148,0.019553072625698324,0.0223463687150838,0.0260707635009311,0.028864059590316574
S15_D13 hbo,0.0,0.0,0.022222222222222223,0.025555555555555557,0.01888888888888889,0.0044444444444444444,0.0,0.02,0.025555555555555557,0.022222222222222223,0.025555555555555557,0.023333333333333334,0.025555555555555557,0.0,0.023333333333333334,0.0,0.025555555555555557,0.025555555555555557,0.025555555555555557,0.0,0.024444444444444446,0.0,0.015555555555555555,0.025555555555555557,0.025555555555555557,0.025555555555555557,0.024444444444444446,0.025555555555555557,0.025555555555555557,0.02,0.023333333333333334,0.025555555555555557,0.016666666666666666,0.024444444444444446,0.01888888888888889,0.02,0.01888888888888889,0.01888888888888889,0.023333333333333334,0.023333333333333334,0.025555555555555557,0.024444444444444446,0.02,0.0,0.02,0.024444444444444446,0.025555555555555557,0.024444444444444446,0.021111111111111112,0.025555555555555557,0.024444444444444446,0.025555555555555557
S15_D15 hbo,0.0,0.0,0.021352313167259787,0.02372479240806643,0.02372479240806643,0.004744958481613286,0.0,0.02372479240806643,0.021352313167259787,0.017793594306049824,0.02491103202846975,0.02491103202846975,0.02372479240806643,0.0,0.018979833926453145,0.0,0.02491103202846975,0.022538552787663108,0.022538552787663108,0.0,0.02491103202846975,0.0,0.020166073546856466,0.02491103202846975,0.02491103202846975,0.02491103202846975,0.020166073546856466,0.02491103202846975,0.021352313167259787,0.02491103202846975,0.02491103202846975,0.02491103202846975,0.017793594306049824,0.02491103202846975,0.02372479240806643,0.02491103202846975,0.02372479240806643,0.02372479240806643,0.02491103202846975,0.02491103202846975,0.021352313167259787,0.02372479240806643,0.02491103202846975,0.0,0.01542111506524318,0.02491103202846975,0.02491103202846975,0.020166073546856466,0.02372479240806643,0.022538552787663108,0.02491103202846975,0.02491103202846975
S15_D16 hbo,0.0,0.0,0.020768431983385256,0.02596053997923157,0.01973001038421599,0.004153686396677051,0.0,0.020768431983385256,0.023883696780893044,0.020768431983385256,0.02596053997923157,0.023883696780893044,0.02596053997923157,0.0,0.021806853582554516,0.0,0.02596053997923157,0.024922118380062305,0.024922118380062305,0.0,0.024922118380062305,0.0,0.016614745586708203,0.02596053997923157,0.02596053997923157,0.02596053997923157,0.02284527518172378,0.02596053997923157,0.023883696780893044,0.020768431983385256,0.023883696780893044,0.02596053997923157,0.01557632398753894,0.024922118380062305,0.01973001038421599,0.020768431983385256,0.01973001038421599,0.01973001038421599,0.023883696780893044,0.023883696780893044,0.023883696780893044,0.024922118380062305,0.020768431983385256,0.0,0.018691588785046728,0.024922118380062305,0.02596053997923157,0.02284527518172378,0.021806853582554516,0.024922118380062305,0.024922118380062305,0.02596053997923157
S16_D14 hbo,0.0,0.0,0.019646365422396856,0.022593320235756387,0.023575638506876228,0.003929273084479371,0.0,0.019646365422396856,0.0206286836935167,0.01768172888015717,0.026522593320235755,0.0275049115913556,0.022593320235756387,0.0,0.018664047151277015,0.0,0.02455795677799607,0.021611001964636542,0.021611001964636542,0.0,0.025540275049115914,0.0,0.01768172888015717,0.0275049115913556,0.025540275049115914,0.0275049115913556,0.019646365422396856,0.026522593320235755,0.0206286836935167,0.022593320235756387,0.0275049115913556,0.026522593320235755,0.014734774066797643,0.0275049115913556,0.023575638506876228,0.02455795677799607,0.022593320235756387,0.0206286836935167,0.0275049115913556,0.0275049115913556,0.0206286836935167,0.022593320235756387,0.02455795677799607,0.0,0.015717092337917484,0.026522593320235755,0.0275049115913556,0.019646365422396856,0.0206286836935167,0.021611001964636542,0.026522593320235755,0.0275049115913556
S16_D16 hbo,0.0,0.0,0.01885014137606032,0.022620169651272386,0.022620169651272386,0.003770028275212064,0.0,0.01885014137606032,0.020735155513666354,0.017907634307257305,0.02639019792648445,0.029217719132893498,0.022620169651272386,0.0,0.01885014137606032,0.0,0.024505183788878417,0.021677662582469368,0.021677662582469368,0.0,0.02544769085768143,0.0,0.016965127238454288,0.027332704995287466,0.02544769085768143,0.027332704995287466,0.019792648444863337,0.02639019792648445,0.020735155513666354,0.021677662582469368,0.02639019792648445,0.02639019792648445,0.01413760603204524,0.029217719132893498,0.024505183788878417,0.024505183788878417,0.021677662582469368,0.019792648444863337,0.02827521206409048,0.02827521206409048,0.020735155513666354,0.022620169651272386,0.0235626767200754,0.0,0.016022620169651274,0.02639019792648445,0.027332704995287466,0.019792648444863337,0.019792648444863337,0.021677662582469368,0.02639019792648445,0.03110273327049953
