,S1_D1 hbo,S1_D3 hbo,S2_D1 hbo,S2_D2 hbo,S2_D4 hbo,S3_D1 hbo,S3_D3 hbo,S3_D4 hbo,S3_D5 hbo,S4_D2 hbo,S4_D4 hbo,S4_D6 hbo,S4_D11 hbo,S5_D3 hbo,S5_D5 hbo,S5_D7 hbo,S6_D4 hbo,S6_D5 hbo,S6_D6 hbo,S6_D8 hbo,S7_D5 hbo,S7_D7 hbo,S7_D8 hbo,S8_D6 hbo,S8_D8 hbo,S8_D15 hbo,S9_D2 hbo,S9_D9 hbo,S9_D11 hbo,S10_D9 hbo,S10_D10 hbo,S10_D12 hbo,S11_D9 hbo,S11_D11 hbo,S11_D12 hbo,S11_D13 hbo,S12_D10 hbo,S12_D12 hbo,S12_D14 hbo,S13_D6 hbo,S13_D11 hbo,S13_D13 hbo,S13_D15 hbo,S14_D12 hbo,S14_D13 hbo,S14_D14 hbo,S14_D16 hbo,S15_D13 hbo,S15_D15 hbo,S15_D16 hbo,S16_D14 hbo,S16_D16 hbo
S1_D1 hbo,0.10410958904109589,0.0,0.0410958904109589,0.038356164383561646,0.0027397260273972603,0.0027397260273972603,0.0,0.0,0.0,0.052054794520547946,0.019178082191780823,0.0410958904109589,0.03287671232876712,0.0136986301369863,0.038356164383561646,0.0,0.0027397260273972603,0.0,0.0,0.0,0.01643835616438356,0.0,0.0,0.0410958904109589,0.01643835616438356,0.019178082191780823,0.03287671232876712,0.021917808219178082,0.043835616438356165,0.0136986301369863,0.043835616438356165,0.00821917808219178,0.0,0.038356164383561646,0.021917808219178082,0.021917808219178082,0.0,0.0136986301369863,0.0,0.052054794520547946,0.03561643835616438,0.0,0.04657534246575343,0.010958904109589041,0.010958904109589041,0.010958904109589041,0.0273972602739726,0.0,0.024657534246575342,0.03287671232876712,0.0,0.005479452054794521
S1_D3 hbo,0.0,0.0,0.0,0.0,0.0,0.0,0.0,0.0,0.0,0.0,0.0,0.0,0.0,0.0,0.0,0.0,0.0,0.0,0.0,0.0,0.0,0.0,0.0,0.0,0.0,0.0,0.0,0.0,0.0,0.0,0.0,0.0,0.0,0.0,0.0,0.0,0.0,0.0,0.0,0.0,0.0,0.0,0.0,0.0,0.0,0.0,0.0,0.0,0.0,0.0,0.0,0.0
S2_D1 hbo,0.02200825309491059,0.0,0.0343878954607978,0.0343878954607978,0.013755158184319119,0.001375515818431912,0.015130674002751032,0.002751031636863824,0.015130674002751032,0.037138927097661624,0.024759284731774415,0.03576341127922971,0.03163686382393398,0.0,0.01925722145804677,0.015130674002751032,0.001375515818431912,0.0,0.015130674002751032,0.012379642365887207,0.023383768913342505,0.015130674002751032,0.015130674002751032,0.03576341127922971,0.023383768913342505,0.024759284731774415,0.03163686382393398,0.026134800550206328,0.037138927097661624,0.015130674002751032,0.0041265474552957355,0.0,0.015130674002751032,0.0343878954607978,0.026134800550206328,0.01925722145804677,0.0,0.001375515818431912,0.0,0.037138927097661624,0.033012379642365884,0.015130674002751032,0.037138927097661624,0.02063273727647868,0.02063273727647868,0.02063273727647868,0.02888583218707015,0.015130674002751032,0.027510316368638238,0.03163686382393398,0.015130674002751032,0.017881705639614855
S2_D2 hbo,0.015321756894790603,0.0,0.02553626149131767,0.033707865168539325,0.010214504596527068,0.0010214504596527069,0.014300306435137897,0.0020429009193054137,0.013278855975485188,0.03268641470888662,0.020429009193054137,0.03472931562819203,0.03268641470888662,0.0,0.014300306435137897,0.020429009193054137,0.0010214504596527069,0.0,0.017364657814096015,0.009193054136874362,0.020429009193054137,0.020429009193054137,0.01940755873340143,0.03575076608784474,0.018386108273748723,0.027579162410623085,0.03268641470888662,0.028600612870275793,0.03575076608784474,0.013278855975485188,0.0030643513789581204,0.0,0.020429009193054137,0.03472931562819203,0.028600612870275793,0.02247191011235955,0.0,0.0010214504596527069,0.0,0.03575076608784474,0.033707865168539325,0.020429009193054137,0.03472931562819203,0.02349336057201226,0.024514811031664963,0.01940755873340143,0.030643513789581207,0.020429009193054137,0.0296220633299285,0.03268641470888662,0.015321756894790603,0.018386108273748723
S2_D4 hbo,0.004415011037527594,0.0,0.026490066225165563,0.026490066225165563,0.02207505518763797,0.002207505518763797,0.02207505518763797,0.004415011037527594,0.02207505518763797,0.026490066225165563,0.026490066225165563,0.026490066225165563,0.026490066225165563,0.0,0.004415011037527594,0.02207505518763797,0.002207505518763797,0.0,0.02207505518763797,0.019867549668874173,0.026490066225165563,0.02207505518763797,0.02207505518763797,0.026490066225165563,0.026490066225165563,0.026490066225165563,0.026490066225165563,0.026490066225165563,0.026490066225165563,0.02207505518763797,0.006622516556291391,0.0,0.02207505518763797,0.026490066225165563,0.026490066225165563,0.026490066225165563,0.0,0.002207505518763797,0.0,0.026490066225165563,0.026490066225165563,0.02207505518763797,0.026490066225165563,0.026490066225165563,0.026490066225165563,0.026490066225165563,0.026490066225165563,0.02207505518763797,0.026490066225165563,0.026490066225165563,0.02207505518763797,0.026490066225165563
S3_D1 hbo,0.02247191011235955,0.0,0.02247191011235955,0.02247191011235955,0.011235955056179775,0.23595505617977527,0.0,0.0,0.0,0.02247191011235955,0.02247191011235955,0.02247191011235955,0.02247191011235955,0.0,0.0449438202247191,0.0,0.011235955056179775,0.0,0.0,0.0,0.02247191011235955,0.0,0.0,0.02247191011235955,0.02247191011235955,0.02247191011235955,0.02247191011235955,0.02247191011235955,0.02247191011235955,0.02247191011235955,0.0,0.0,0.02247191011235955,0.02247191011235955,0.02247191011235955,0.0449438202247191,0.0,0.0,0.0,0.02247191011235955,0.0449438202247191,0.0,0.02247191011235955,0.02247191011235955,0.02247191011235955,0.02247191011235955,0.02247191011235955,0.0,0.02247191011235955,0.02247191011235955,0.0,0.02247191011235955
S3_D3 hbo,0.0,0.0,0.017761989342806393,0.02664298401420959,0.015985790408525755,0.0,0.02486678507992895,0.003552397868561279,0.023090586145648313,0.02664298401420959,0.023090586145648313,0.02664298401420959,0.02664298401420959,0.0,0.0,0.02664298401420959,0.0,0.0,0.02664298401420959,0.015985790408525755,0.02486678507992895,0.02664298401420959,0.02664298401420959,0.02664298401420959,0.021314387211367674,0.02664298401420959,0.02664298401420959,0.02664298401420959,0.02664298401420959,0.023090586145648313,0.0053285968028419185,0.0,0.02664298401420959,0.02664298401420959,0.02664298401420959,0.02664298401420959,0.0,0.0017761989342806395,0.0,0.02664298401420959,0.02664298401420959,0.02664298401420959,0.02664298401420959,0.02664298401420959,0.02664298401420959,0.02664298401420959,0.02664298401420959,0.02664298401420959,0.02664298401420959,0.02664298401420959,0.02664298401420959,0.02664298401420959
S3_D4 hbo,0.0,0.0,0.0234375,0.0234375,0.0234375,0.0,0.0234375,0.03125,0.0234375,0.0234375,0.0234375,0.0234375,0.0234375,0.0,0.0,0.0234375,0.0,0.0,0.0234375,0.0234375,0.0234375,0.0234375,0.0234375,0.0234375,0.0234375,0.0234375,0.0234375,0.0234375,0.0234375,0.0234375,0.0234375,0.0,0.0234375,0.0234375,0.0234375,0.046875,0.0,0.0078125,0.0,0.0234375,0.0234375,0.0234375,0.0234375,0.0234375,0.0234375,0.0234375,0.0234375,0.0234375,0.0234375,0.0234375,0.0234375,0.0234375
S3_D5 hbo,0.0,0.0,0.01876172607879925,0.02626641651031895,0.016885553470919325,0.0,0.02626641651031895,0.00375234521575985,0.024390243902439025,0.02626641651031895,0.024390243902439025,0.02626641651031895,0.02626641651031895,0.0,0.0,0.02626641651031895,0.0,0.0,0.02626641651031895,0.016885553470919325,0.02626641651031895,0.02626641651031895,0.02626641651031895,0.02626641651031895,0.0225140712945591,0.02626641651031895,0.02626641651031895,0.02626641651031895,0.02626641651031895,0.024390243902439025,0.005628517823639775,0.0,0.02626641651031895,0.02626641651031895,0.02626641651031895,0.02626641651031895,0.0,0.001876172607879925,0.0,0.02626641651031895,0.02626641651031895,0.02626641651031895,0.02626641651031895,0.02626641651031895,0.02626641651031895,0.02626641651031895,0.02626641651031895,0.02626641651031895,0.02626641651031895,0.02626641651031895,0.02626641651031895,0.02626641651031895
S4_D2 hbo,0.02072538860103627,0.0,0.025906735751295335,0.03316062176165803,0.010362694300518135,0.0010362694300518134,0.014507772020725389,0.002072538860103627,0.013471502590673576,0.046632124352331605,0.02072538860103627,0.03419689119170984,0.035233160621761656,0.0,0.014507772020725389,0.01865284974093264,0.0010362694300518134,0.0,0.017616580310880828,0.00932642487046632,0.02072538860103627,0.019689119170984457,0.01865284974093264,0.03419689119170984,0.01865284974093264,0.025906735751295335,0.031088082901554404,0.02694300518134715,0.035233160621761656,0.013471502590673576,0.0031088082901554403,0.0,0.01865284974093264,0.03316062176165803,0.02694300518134715,0.021761658031088083,0.0,0.0010362694300518134,0.0,0.0383419689119171,0.03212435233160622,0.01865284974093264,0.03626943005181347,0.022797927461139896,0.022797927461139896,0.019689119170984457,0.029015544041450778,0.01865284974093264,0.027979274611398965,0.031088082901554404,0.015544041450777202,0.01865284974093264
S4_D4 hbo,0.01094391244870041,0.0,0.024623803009575923,0.030095759233926128,0.013679890560875513,0.0013679890560875513,0.019151846785225718,0.0027359781121751026,0.017783857729138167,0.030095759233926128,0.027359781121751026,0.030095759233926128,0.030095759233926128,0.0,0.01094391244870041,0.019151846785225718,0.0013679890560875513,0.0,0.019151846785225718,0.012311901504787962,0.027359781121751026,0.019151846785225718,0.019151846785225718,0.030095759233926128,0.024623803009575923,0.028727770177838577,0.030095759233926128,0.030095759233926128,0.030095759233926128,0.017783857729138167,0.004103967168262654,0.0,0.019151846785225718,0.030095759233926128,0.030095759233926128,0.023255813953488372,0.0,0.0013679890560875513,0.0,0.030095759233926128,0.030095759233926128,0.019151846785225718,0.030095759233926128,0.024623803009575923,0.024623803009575923,0.024623803009575923,0.030095759233926128,0.019151846785225718,0.030095759233926128,0.030095759233926128,0.019151846785225718,0.02188782489740082
S4_D6 hbo,0.016260162601626018,0.0,0.02540650406504065,0.03353658536585366,0.01016260162601626,0.0010162601626016261,0.014227642276422764,0.0020325203252032522,0.013211382113821139,0.03353658536585366,0.02032520325203252,0.034552845528455285,0.032520325203252036,0.0,0.014227642276422764,0.02032520325203252,0.0010162601626016261,0.0,0.017276422764227643,0.009146341463414634,0.02032520325203252,0.02032520325203252,0.019308943089430895,0.03556910569105691,0.018292682926829267,0.027439024390243903,0.032520325203252036,0.028455284552845527,0.036585365853658534,0.013211382113821139,0.003048780487804878,0.0,0.02032520325203252,0.034552845528455285,0.028455284552845527,0.022357723577235773,0.0,0.0010162601626016261,0.0,0.036585365853658534,0.03353658536585366,0.02032520325203252,0.03556910569105691,0.023373983739837397,0.024390243902439025,0.019308943089430895,0.03048780487804878,0.02032520325203252,0.029471544715447155,0.032520325203252036,0.01524390243902439,0.018292682926829267
S4_D11 hbo,0.012560386473429951,0.0,0.022222222222222223,0.030917874396135265,0.00966183574879227,0.000966183574879227,0.01352657004830918,0.001932367149758454,0.012560386473429951,0.033816425120772944,0.01932367149758454,0.030917874396135265,0.03961352657004831,0.0,0.012560386473429951,0.025120772946859903,0.000966183574879227,0.0,0.01642512077294686,0.008695652173913044,0.01932367149758454,0.025120772946859903,0.018357487922705314,0.033816425120772944,0.017391304347826087,0.028019323671497585,0.035748792270531404,0.02995169082125604,0.035748792270531404,0.012560386473429951,0.002898550724637681,0.0,0.025120772946859903,0.03671497584541063,0.02995169082125604,0.021256038647342997,0.0,0.000966183574879227,0.0,0.033816425120772944,0.03285024154589372,0.025120772946859903,0.030917874396135265,0.022222222222222223,0.02318840579710145,0.018357487922705314,0.028985507246376812,0.02318840579710145,0.028985507246376812,0.035748792270531404,0.014492753623188406,0.017391304347826087
S5_D3 hbo,0.1,0.0,0.0,0.0,0.0,0.0,0.0,0.0,0.0,0.025,0.0,0.0,0.025,0.15,0.0,0.0,0.0,0.0,0.0,0.0,0.0,0.025,0.0,0.0,0.0,0.0,0.0,0.0,0.0,0.125,0.175,0.075,0.0,0.0,0.0,0.175,0.0,0.125,0.0,0.0,0.0,0.0,0.0,0.0,0.0,0.0,0.0,0.0,0.0,0.0,0.0,0.0
S5_D5 hbo,0.04424778761061947,0.0,0.04424778761061947,0.04129793510324484,0.0029498525073746312,0.0058997050147492625,0.0,0.0,0.0,0.04424778761061947,0.02064896755162242,0.04424778761061947,0.035398230088495575,0.0,0.07669616519174041,0.0,0.0029498525073746312,0.0,0.0,0.0,0.017699115044247787,0.0,0.0,0.04424778761061947,0.017699115044247787,0.02064896755162242,0.035398230088495575,0.02359882005899705,0.04424778761061947,0.02064896755162242,0.0,0.0,0.014749262536873156,0.04129793510324484,0.02359882005899705,0.04424778761061947,0.0,0.0,0.0,0.04424778761061947,0.06784660766961652,0.0,0.04424778761061947,0.011799410029498525,0.011799410029498525,0.011799410029498525,0.029498525073746312,0.0,0.02654867256637168,0.035398230088495575,0.0,0.0058997050147492625
S5_D7 hbo,0.0,0.0,0.013297872340425532,0.02526595744680851,0.011968085106382979,0.0,0.018617021276595744,0.0026595744680851063,0.017287234042553192,0.022606382978723406,0.017287234042553192,0.02526595744680851,0.03324468085106383,0.0,0.0,0.034574468085106384,0.0,0.0,0.022606382978723406,0.011968085106382979,0.018617021276595744,0.03324468085106383,0.02526595744680851,0.02925531914893617,0.015957446808510637,0.02925531914893617,0.03324468085106383,0.030585106382978722,0.031914893617021274,0.017287234042553192,0.003989361702127659,0.0,0.034574468085106384,0.03324468085106383,0.030585106382978722,0.02526595744680851,0.0,0.0013297872340425532,0.0,0.02925531914893617,0.027925531914893616,0.034574468085106384,0.02526595744680851,0.02526595744680851,0.026595744680851064,0.0199468085106383,0.026595744680851064,0.031914893617021274,0.027925531914893616,0.03324468085106383,0.0199468085106383,0.02127659574468085
S6_D4 hbo,0.03389830508474576,0.0,0.03389830508474576,0.03389830508474576,0.01694915254237288,0.01694915254237288,0.0,0.0,0.0,0.03389830508474576,0.03389830508474576,0.03389830508474576,0.03389830508474576,0.0,0.03389830508474576,0.0,0.01694915254237288,0.0,0.0,0.0,0.03389830508474576,0.0,0.0,0.03389830508474576,0.03389830508474576,0.03389830508474576,0.03389830508474576,0.03389830508474576,0.03389830508474576,0.0,0.0,0.0,0.0,0.03389830508474576,0.03389830508474576,0.03389830508474576,0.0,0.0,0.0,0.03389830508474576,0.03389830508474576,0.0,0.03389830508474576,0.03389830508474576,0.03389830508474576,0.03389830508474576,0.03389830508474576,0.0,0.03389830508474576,0.03389830508474576,0.0,0.03389830508474576
S6_D5 hbo,0.0,0.0,0.0,0.0,0.0,0.0,0.0,0.0,0.0,0.0,0.0,0.0,0.0,0.0,0.0,0.0,0.0,0.0,0.0,0.0,0.0,0.0,0.0,0.0,0.0,0.0,0.0,0.0,0.0,0.0,0.0,0.0,0.0,0.0,0.0,0.0,0.0,0.0,0.0,0.0,0.0,0.0,0.0,0.0,0.0,0.0,0.0,0.0,0.0,0.0,0.0,0.0
S6_D6 hbo,0.0,0.0,0.015552099533437015,0.027993779160186624,0.013996889580093312,0.0,0.02177293934681182,0.003110419906687403,0.02021772939346812,0.026438569206842923,0.02021772939346812,0.027993779160186624,0.027993779160186624,0.0,0.0,0.027993779160186624,0.0,0.0,0.026438569206842923,0.013996889580093312,0.02177293934681182,0.027993779160186624,0.027993779160186624,0.027993779160186624,0.01866251944012442,0.027993779160186624,0.027993779160186624,0.027993779160186624,0.027993779160186624,0.02021772939346812,0.004665629860031105,0.0,0.027993779160186624,0.027993779160186624,0.027993779160186624,0.027993779160186624,0.0,0.0015552099533437014,0.0,0.027993779160186624,0.027993779160186624,0.027993779160186624,0.027993779160186624,0.027993779160186624,0.027993779160186624,0.02332814930015552,0.027993779160186624,0.027993779160186624,0.027993779160186624,0.027993779160186624,0.02332814930015552,0.024883359253499222
S6_D8 hbo,0.0,0.0,0.025380710659898477,0.025380710659898477,0.02284263959390863,0.0,0.025380710659898477,0.005076142131979695,0.025380710659898477,0.025380710659898477,0.025380710659898477,0.025380710659898477,0.025380710659898477,0.0,0.0,0.025380710659898477,0.0,0.0,0.025380710659898477,0.02284263959390863,0.025380710659898477,0.025380710659898477,0.025380710659898477,0.025380710659898477,0.025380710659898477,0.025380710659898477,0.025380710659898477,0.025380710659898477,0.025380710659898477,0.025380710659898477,0.007614213197969543,0.0,0.025380710659898477,0.025380710659898477,0.025380710659898477,0.025380710659898477,0.0,0.0025380710659898475,0.0,0.025380710659898477,0.025380710659898477,0.025380710659898477,0.025380710659898477,0.025380710659898477,0.025380710659898477,0.025380710659898477,0.025380710659898477,0.025380710659898477,0.025380710659898477,0.025380710659898477,0.025380710659898477,0.025380710659898477
S7_D5 hbo,0.008443908323281062,0.0,0.020506634499396863,0.026537997587454766,0.012062726176115802,0.0012062726176115801,0.016887816646562123,0.0024125452352231603,0.015681544028950542,0.026537997587454766,0.024125452352231604,0.026537997587454766,0.026537997587454766,0.0,0.008443908323281062,0.018094089264173704,0.0012062726176115801,0.0,0.018094089264173704,0.010856453558504222,0.03498190591073583,0.030156815440289506,0.021712907117008445,0.026537997587454766,0.022919179734620022,0.03498190591073583,0.026537997587454766,0.026537997587454766,0.026537997587454766,0.015681544028950542,0.014475271411338963,0.0,0.018094089264173704,0.026537997587454766,0.026537997587454766,0.021712907117008445,0.009650180940892641,0.013268998793727383,0.012062726176115802,0.026537997587454766,0.026537997587454766,0.018094089264173704,0.026537997587454766,0.022919179734620022,0.022919179734620022,0.03498190591073583,0.026537997587454766,0.018094089264173704,0.026537997587454766,0.026537997587454766,0.030156815440289506,0.020506634499396863
S7_D7 hbo,0.0,0.0,0.01152073732718894,0.021889400921658985,0.010368663594470046,0.0,0.016129032258064516,0.002304147465437788,0.014976958525345621,0.021889400921658985,0.014976958525345621,0.021889400921658985,0.03110599078341014,0.0,0.0,0.029953917050691243,0.0,0.0,0.019585253456221197,0.010368663594470046,0.026497695852534562,0.04608294930875576,0.02534562211981567,0.02534562211981567,0.014976958525345621,0.03341013824884793,0.02880184331797235,0.026497695852534562,0.027649769585253458,0.014976958525345621,0.013824884792626729,0.0,0.029953917050691243,0.02880184331797235,0.026497695852534562,0.021889400921658985,0.009216589861751152,0.018433179723502304,0.01728110599078341,0.02534562211981567,0.024193548387096774,0.029953917050691243,0.021889400921658985,0.021889400921658985,0.02304147465437788,0.03456221198156682,0.02304147465437788,0.027649769585253458,0.024193548387096774,0.02880184331797235,0.03456221198156682,0.018433179723502304
S7_D8 hbo,0.0,0.0,0.013755158184319119,0.026134800550206328,0.012379642365887207,0.0,0.01925722145804677,0.002751031636863824,0.017881705639614855,0.023383768913342505,0.017881705639614855,0.026134800550206328,0.027510316368638238,0.0,0.0,0.027510316368638238,0.0,0.0,0.023383768913342505,0.012379642365887207,0.024759284731774415,0.033012379642365884,0.030261348005502064,0.027510316368638238,0.017881705639614855,0.033012379642365884,0.027510316368638238,0.027510316368638238,0.027510316368638238,0.017881705639614855,0.009628610729023384,0.0,0.027510316368638238,0.027510316368638238,0.027510316368638238,0.026134800550206328,0.005502063273727648,0.0068775790921595595,0.005502063273727648,0.027510316368638238,0.027510316368638238,0.027510316368638238,0.026134800550206328,0.026134800550206328,0.027510316368638238,0.026134800550206328,0.027510316368638238,0.027510316368638238,0.027510316368638238,0.027510316368638238,0.026134800550206328,0.02200825309491059
S8_D6 hbo,0.01556420233463035,0.0,0.024319066147859923,0.032101167315175094,0.009727626459143969,0.0009727626459143969,0.013618677042801557,0.0019455252918287938,0.01264591439688716,0.032101167315175094,0.019455252918287938,0.033073929961089495,0.03404669260700389,0.0,0.013618677042801557,0.02237354085603113,0.0009727626459143969,0.0,0.016536964980544747,0.008754863813229572,0.019455252918287938,0.02237354085603113,0.01848249027237354,0.03599221789883268,0.017509727626459144,0.02821011673151751,0.03404669260700389,0.030155642023346304,0.037937743190661476,0.01264591439688716,0.0029182879377431907,0.0,0.02237354085603113,0.03599221789883268,0.030155642023346304,0.021400778210116732,0.0,0.0009727626459143969,0.0,0.03696498054474708,0.033073929961089495,0.02237354085603113,0.03404669260700389,0.02237354085603113,0.023346303501945526,0.01848249027237354,0.029182879377431907,0.02237354085603113,0.029182879377431907,0.03404669260700389,0.014591439688715954,0.017509727626459144
S8_D8 hbo,0.009985734664764621,0.0,0.024251069900142655,0.028530670470756064,0.014265335235378032,0.0014265335235378032,0.018544935805991442,0.0028530670470756064,0.018544935805991442,0.028530670470756064,0.028530670470756064,0.028530670470756064,0.028530670470756064,0.0,0.009985734664764621,0.018544935805991442,0.0014265335235378032,0.0,0.018544935805991442,0.012838801711840228,0.029957203994293864,0.021398002853067047,0.021398002853067047,0.028530670470756064,0.02710413694721826,0.03138373751783167,0.028530670470756064,0.028530670470756064,0.028530670470756064,0.018544935805991442,0.007132667617689016,0.0,0.018544935805991442,0.028530670470756064,0.028530670470756064,0.02282453637660485,0.0028530670470756064,0.0042796005706134095,0.0028530670470756064,0.028530670470756064,0.028530670470756064,0.018544935805991442,0.028530670470756064,0.024251069900142655,0.024251069900142655,0.02710413694721826,0.028530670470756064,0.018544935805991442,0.028530670470756064,0.028530670470756064,0.021398002853067047,0.021398002853067047
S8_D15 hbo,0.00796812749003984,0.0,0.017928286852589643,0.026892430278884463,0.0099601593625498,0.00099601593625498,0.013944223107569721,0.00199203187250996,0.012948207171314742,0.0249003984063745,0.0199203187250996,0.026892430278884463,0.030876494023904383,0.0,0.00796812749003984,0.022908366533864542,0.00099601593625498,0.0,0.01693227091633466,0.008964143426294821,0.027888446215139442,0.030876494023904383,0.021912350597609563,0.029880478087649404,0.018924302788844622,0.035856573705179286,0.030876494023904383,0.030876494023904383,0.030876494023904383,0.012948207171314742,0.010956175298804782,0.0,0.022908366533864542,0.030876494023904383,0.030876494023904383,0.021912350597609563,0.00796812749003984,0.008964143426294821,0.00796812749003984,0.029880478087649404,0.02888446215139442,0.022908366533864542,0.026892430278884463,0.022908366533864542,0.02390438247011952,0.026892430278884463,0.027888446215139442,0.022908366533864542,0.02888446215139442,0.030876494023904383,0.022908366533864542,0.017928286852589643
S9_D2 hbo,0.012682926829268294,0.0,0.0224390243902439,0.03121951219512195,0.00975609756097561,0.000975609756097561,0.013658536585365854,0.001951219512195122,0.012682926829268294,0.02926829268292683,0.01951219512195122,0.03121951219512195,0.03609756097560975,0.0,0.012682926829268294,0.025365853658536587,0.000975609756097561,0.0,0.016585365853658537,0.00878048780487805,0.01951219512195122,0.024390243902439025,0.018536585365853658,0.03414634146341464,0.0175609756097561,0.02829268292682927,0.03609756097560975,0.03024390243902439,0.03609756097560975,0.012682926829268294,0.002926829268292683,0.0,0.025365853658536587,0.037073170731707315,0.03024390243902439,0.021463414634146343,0.0,0.000975609756097561,0.0,0.03414634146341464,0.033170731707317075,0.025365853658536587,0.03121951219512195,0.0224390243902439,0.023414634146341463,0.018536585365853658,0.02926829268292683,0.023414634146341463,0.02926829268292683,0.03609756097560975,0.014634146341463415,0.0175609756097561
S9_D9 hbo,0.009414225941422594,0.0,0.0198744769874477,0.029288702928870293,0.010460251046025104,0.0010460251046025104,0.014644351464435146,0.0020920502092050207,0.013598326359832637,0.027196652719665274,0.02092050209205021,0.029288702928870293,0.034518828451882845,0.0,0.009414225941422594,0.02510460251046025,0.0010460251046025104,0.0,0.01778242677824268,0.009414225941422594,0.02092050209205021,0.02510460251046025,0.0198744769874477,0.032426778242677826,0.01882845188284519,0.030334728033472803,0.034518828451882845,0.032426778242677826,0.034518828451882845,0.013598326359832637,0.0031380753138075313,0.0,0.02510460251046025,0.034518828451882845,0.032426778242677826,0.02301255230125523,0.0,0.0010460251046025104,0.0,0.032426778242677826,0.03138075313807531,0.02510460251046025,0.029288702928870293,0.02405857740585774,0.02510460251046025,0.0198744769874477,0.030334728033472803,0.02510460251046025,0.03138075313807531,0.034518828451882845,0.015690376569037656,0.01882845188284519
S9_D11 hbo,0.01619047619047619,0.0,0.023809523809523808,0.03142857142857143,0.009523809523809525,0.0009523809523809524,0.013333333333333334,0.0019047619047619048,0.012380952380952381,0.03238095238095238,0.01904761904761905,0.03238095238095238,0.035238095238095235,0.0,0.013333333333333334,0.023809523809523808,0.0009523809523809524,0.0,0.01619047619047619,0.008571428571428572,0.01904761904761905,0.023809523809523808,0.018095238095238095,0.035238095238095235,0.017142857142857144,0.02761904761904762,0.035238095238095235,0.029523809523809525,0.0380952380952381,0.012380952380952381,0.002857142857142857,0.0,0.023809523809523808,0.037142857142857144,0.029523809523809525,0.02095238095238095,0.0,0.0009523809523809524,0.0,0.037142857142857144,0.03238095238095238,0.023809523809523808,0.03428571428571429,0.021904761904761906,0.022857142857142857,0.018095238095238095,0.02857142857142857,0.022857142857142857,0.02857142857142857,0.035238095238095235,0.014285714285714285,0.017142857142857144
S10_D9 hbo,0.006611570247933884,0.0,0.01652892561983471,0.023140495867768594,0.01487603305785124,0.001652892561983471,0.023140495867768594,0.003305785123966942,0.021487603305785124,0.023140495867768594,0.021487603305785124,0.023140495867768594,0.023140495867768594,0.009917355371900827,0.013223140495867768,0.023140495867768594,0.0,0.0,0.023140495867768594,0.01487603305785124,0.023140495867768594,0.023140495867768594,0.023140495867768594,0.023140495867768594,0.019834710743801654,0.023140495867768594,0.023140495867768594,0.023140495867768594,0.023140495867768594,0.04132231404958678,0.01487603305785124,0.0049586776859504135,0.03140495867768595,0.023140495867768594,0.023140495867768594,0.04628099173553719,0.0,0.009917355371900827,0.0,0.023140495867768594,0.03636363636363636,0.023140495867768594,0.023140495867768594,0.023140495867768594,0.023140495867768594,0.023140495867768594,0.023140495867768594,0.023140495867768594,0.023140495867768594,0.023140495867768594,0.023140495867768594,0.023140495867768594
S10_D10 hbo,0.04833836858006042,0.0,0.012084592145015106,0.012084592145015106,0.012084592145015106,0.0,0.012084592145015106,0.006042296072507553,0.012084592145015106,0.012084592145015106,0.012084592145015106,0.012084592145015106,0.012084592145015106,0.01812688821752266,0.0,0.012084592145015106,0.0,0.0,0.012084592145015106,0.012084592145015106,0.03927492447129909,0.04229607250755287,0.021148036253776436,0.012084592145015106,0.015105740181268883,0.03323262839879154,0.012084592145015106,0.012084592145015106,0.012084592145015106,0.027190332326283987,0.13595166163141995,0.00906344410876133,0.012084592145015106,0.012084592145015106,0.012084592145015106,0.054380664652567974,0.02416918429003021,0.04833836858006042,0.030211480362537766,0.012084592145015106,0.012084592145015106,0.012084592145015106,0.012084592145015106,0.012084592145015106,0.012084592145015106,0.04229607250755287,0.012084592145015106,0.012084592145015106,0.012084592145015106,0.012084592145015106,0.04229607250755287,0.012084592145015106
S10_D12 hbo,0.07042253521126761,0.0,0.014084507042253521,0.014084507042253521,0.014084507042253521,0.0,0.014084507042253521,0.014084507042253521,0.014084507042253521,0.014084507042253521,0.014084507042253521,0.014084507042253521,0.014084507042253521,0.056338028169014086,0.0,0.014084507042253521,0.0,0.0,0.014084507042253521,0.014084507042253521,0.014084507042253521,0.014084507042253521,0.014084507042253521,0.014084507042253521,0.014084507042253521,0.014084507042253521,0.014084507042253521,0.014084507042253521,0.014084507042253521,0.07042253521126761,0.08450704225352113,0.04225352112676056,0.014084507042253521,0.014084507042253521,0.014084507042253521,0.07042253521126761,0.0,0.07042253521126761,0.0,0.014084507042253521,0.014084507042253521,0.014084507042253521,0.014084507042253521,0.014084507042253521,0.014084507042253521,0.014084507042253521,0.014084507042253521,0.014084507042253521,0.014084507042253521,0.014084507042253521,0.014084507042253521,0.014084507042253521
S11_D9 hbo,0.0,0.0,0.01278772378516624,0.024296675191815855,0.011508951406649617,0.0012787723785166241,0.017902813299232736,0.0025575447570332483,0.016624040920716114,0.021739130434782608,0.016624040920716114,0.024296675191815855,0.0319693094629156,0.0,0.0076726342710997444,0.03324808184143223,0.0,0.0,0.021739130434782608,0.011508951406649617,0.017902813299232736,0.0319693094629156,0.024296675191815855,0.028132992327365727,0.015345268542199489,0.028132992327365727,0.0319693094629156,0.029411764705882353,0.030690537084398978,0.024296675191815855,0.0038363171355498722,0.0,0.03964194373401535,0.0319693094629156,0.029411764705882353,0.0319693094629156,0.0,0.0012787723785166241,0.0,0.028132992327365727,0.034526854219948847,0.03324808184143223,0.024296675191815855,0.024296675191815855,0.02557544757033248,0.01918158567774936,0.02557544757033248,0.030690537084398978,0.026854219948849106,0.0319693094629156,0.01918158567774936,0.020460358056265986
S11_D11 hbo,0.014367816091954023,0.0,0.023946360153256706,0.031609195402298854,0.009578544061302681,0.0009578544061302681,0.013409961685823755,0.0019157088122605363,0.012452107279693486,0.03065134099616858,0.019157088122605363,0.032567049808429116,0.035440613026819924,0.0,0.013409961685823755,0.02490421455938697,0.0009578544061302681,0.0,0.016283524904214558,0.008620689655172414,0.019157088122605363,0.023946360153256706,0.018199233716475097,0.035440613026819924,0.017241379310344827,0.027777777777777776,0.035440613026819924,0.029693486590038315,0.03735632183908046,0.012452107279693486,0.0028735632183908046,0.0,0.02490421455938697,0.03735632183908046,0.029693486590038315,0.0210727969348659,0.0,0.0009578544061302681,0.0,0.035440613026819924,0.032567049808429116,0.02490421455938697,0.032567049808429116,0.022030651340996167,0.022988505747126436,0.018199233716475097,0.028735632183908046,0.022988505747126436,0.028735632183908046,0.035440613026819924,0.014367816091954023,0.017241379310344827
S11_D12 hbo,0.009414225941422594,0.0,0.0198744769874477,0.029288702928870293,0.010460251046025104,0.0010460251046025104,0.014644351464435146,0.0020920502092050207,0.013598326359832637,0.027196652719665274,0.02092050209205021,0.029288702928870293,0.034518828451882845,0.0,0.009414225941422594,0.02510460251046025,0.0010460251046025104,0.0,0.01778242677824268,0.009414225941422594,0.02092050209205021,0.02510460251046025,0.0198744769874477,0.032426778242677826,0.01882845188284519,0.030334728033472803,0.034518828451882845,0.032426778242677826,0.034518828451882845,0.013598326359832637,0.0031380753138075313,0.0,0.02510460251046025,0.034518828451882845,0.032426778242677826,0.02301255230125523,0.0,0.0010460251046025104,0.0,0.032426778242677826,0.03138075313807531,0.02510460251046025,0.029288702928870293,0.02405857740585774,0.02510460251046025,0.0198744769874477,0.030334728033472803,0.02510460251046025,0.03138075313807531,0.034518828451882845,0.015690376569037656,0.01882845188284519
S11_D13 hbo,0.008676789587852495,0.0,0.015184381778741865,0.024945770065075923,0.010845986984815618,0.0021691973969631237,0.015184381778741865,0.004338394793926247,0.014099783080260303,0.0227765726681128,0.01843817787418655,0.024945770065075923,0.026030368763557483,0.006507592190889371,0.01735357917570499,0.021691973969631236,0.0010845986984815619,0.0,0.01843817787418655,0.009761388286334056,0.019522776572668113,0.021691973969631236,0.020607375271149676,0.026030368763557483,0.01735357917570499,0.026030368763557483,0.026030368763557483,0.026030368763557483,0.026030368763557483,0.027114967462039046,0.019522776572668113,0.0032537960954446853,0.027114967462039046,0.026030368763557483,0.026030368763557483,0.07592190889370933,0.0,0.006507592190889371,0.0,0.026030368763557483,0.0368763557483731,0.021691973969631236,0.024945770065075923,0.024945770065075923,0.026030368763557483,0.020607375271149676,0.026030368763557483,0.021691973969631236,0.026030368763557483,0.026030368763557483,0.016268980477223426,0.019522776572668113
S12_D10 hbo,0.0,0.0,0.0,0.0,0.0,0.0,0.0,0.0,0.0,0.0,0.0,0.0,0.0,0.0,0.0,0.0,0.0,0.0,0.0,0.0,0.1,0.1,0.03333333333333333,0.0,0.011111111111111112,0.07777777777777778,0.0,0.0,0.0,0.0,0.1,0.0,0.0,0.0,0.0,0.0,0.17777777777777778,0.1,0.1,0.0,0.0,0.0,0.0,0.0,0.0,0.1,0.0,0.0,0.0,0.0,0.1,0.0
S12_D12 hbo,0.014925373134328358,0.0,0.007462686567164179,0.007462686567164179,0.007462686567164179,0.0,0.007462686567164179,0.007462686567164179,0.007462686567164179,0.007462686567164179,0.007462686567164179,0.007462686567164179,0.007462686567164179,0.022388059701492536,0.0,0.007462686567164179,0.0,0.0,0.007462686567164179,0.007462686567164179,0.041044776119402986,0.05970149253731343,0.018656716417910446,0.007462686567164179,0.011194029850746268,0.033582089552238806,0.007462686567164179,0.007462686567164179,0.007462686567164179,0.026119402985074626,0.06343283582089553,0.011194029850746268,0.007462686567164179,0.007462686567164179,0.007462686567164179,0.029850746268656716,0.029850746268656716,0.16417910447761194,0.10074626865671642,0.007462686567164179,0.007462686567164179,0.007462686567164179,0.007462686567164179,0.007462686567164179,0.007462686567164179,0.07835820895522388,0.007462686567164179,0.007462686567164179,0.007462686567164179,0.007462686567164179,0.06343283582089553,0.007462686567164179
S12_D14 hbo,0.0,0.0,0.0,0.0,0.0,0.0,0.0,0.0,0.0,0.0,0.0,0.0,0.0,0.0,0.0,0.0,0.0,0.0,0.0,0.0,0.06338028169014084,0.09859154929577464,0.02112676056338028,0.0,0.007042253521126761,0.04929577464788732,0.0,0.0,0.0,0.0,0.06338028169014084,0.0,0.0,0.0,0.0,0.0,0.056338028169014086,0.18309859154929578,0.21830985915492956,0.0,0.0,0.0,0.0,0.0,0.0,0.13380281690140844,0.0,0.0,0.0,0.0,0.1056338028169014,0.0
S13_D6 hbo,0.019249278152069296,0.0,0.02406159769008662,0.03176130895091434,0.009624639076034648,0.0009624639076034649,0.013474494706448507,0.0019249278152069298,0.012512030798845043,0.03464870067372473,0.019249278152069296,0.032723772858517804,0.03368623676612127,0.0,0.013474494706448507,0.02213666987487969,0.0009624639076034649,0.0,0.016361886429258902,0.008662175168431183,0.019249278152069296,0.02213666987487969,0.01828681424446583,0.0356111645813282,0.017324350336862367,0.02791145332050048,0.03368623676612127,0.029836381135707413,0.03753609239653513,0.012512030798845043,0.0028873917228103944,0.0,0.02213666987487969,0.0356111645813282,0.029836381135707413,0.021174205967276226,0.0,0.0009624639076034649,0.0,0.03946102021174206,0.032723772858517804,0.02213666987487969,0.03464870067372473,0.02213666987487969,0.023099133782483156,0.01828681424446583,0.028873917228103944,0.02213666987487969,0.028873917228103944,0.03368623676612127,0.014436958614051972,0.017324350336862367
S13_D11 hbo,0.013358778625954198,0.0,0.022900763358778626,0.03148854961832061,0.009541984732824428,0.0019083969465648854,0.013358778625954198,0.0019083969465648854,0.012404580152671756,0.029580152671755726,0.019083969465648856,0.03148854961832061,0.03244274809160305,0.0,0.02385496183206107,0.02099236641221374,0.0009541984732824427,0.0,0.016221374045801526,0.008587786259541985,0.019083969465648856,0.02099236641221374,0.01812977099236641,0.03435114503816794,0.01717557251908397,0.02767175572519084,0.03244274809160305,0.02862595419847328,0.03435114503816794,0.019083969465648856,0.0028625954198473282,0.0,0.025763358778625955,0.03435114503816794,0.02862595419847328,0.03148854961832061,0.0,0.0009541984732824427,0.0,0.03435114503816794,0.04198473282442748,0.02099236641221374,0.03148854961832061,0.02194656488549618,0.022900763358778626,0.01812977099236641,0.02862595419847328,0.02099236641221374,0.02862595419847328,0.03244274809160305,0.01431297709923664,0.01717557251908397
S13_D13 hbo,0.0,0.0,0.013297872340425532,0.02526595744680851,0.011968085106382979,0.0,0.018617021276595744,0.0026595744680851063,0.017287234042553192,0.022606382978723406,0.017287234042553192,0.02526595744680851,0.03324468085106383,0.0,0.0,0.034574468085106384,0.0,0.0,0.022606382978723406,0.011968085106382979,0.018617021276595744,0.03324468085106383,0.02526595744680851,0.02925531914893617,0.015957446808510637,0.02925531914893617,0.03324468085106383,0.030585106382978722,0.031914893617021274,0.017287234042553192,0.003989361702127659,0.0,0.034574468085106384,0.03324468085106383,0.030585106382978722,0.02526595744680851,0.0,0.0013297872340425532,0.0,0.02925531914893617,0.027925531914893616,0.034574468085106384,0.02526595744680851,0.02526595744680851,0.026595744680851064,0.0199468085106383,0.026595744680851064,0.031914893617021274,0.027925531914893616,0.03324468085106383,0.0199468085106383,0.02127659574468085
S13_D15 hbo,0.018163471241170535,0.0,0.025227043390514632,0.033299697275479316,0.010090817356205853,0.0010090817356205853,0.014127144298688193,0.0020181634712411706,0.013118062563067608,0.035317860746720484,0.020181634712411706,0.034308779011099896,0.03229061553985873,0.0,0.014127144298688193,0.020181634712411706,0.0010090817356205853,0.0,0.017154389505549948,0.009081735620585268,0.020181634712411706,0.020181634712411706,0.01917255297679112,0.035317860746720484,0.018163471241170535,0.027245206861755803,0.03229061553985873,0.028254288597376387,0.03632694248234107,0.013118062563067608,0.0030272452068617556,0.0,0.020181634712411706,0.034308779011099896,0.028254288597376387,0.022199798183652877,0.0,0.0010090817356205853,0.0,0.03834510595358224,0.033299697275479316,0.020181634712411706,0.03632694248234107,0.02320887991927346,0.024217961654894045,0.01917255297679112,0.030272452068617558,0.020181634712411706,0.029263370332996974,0.03229061553985873,0.015136226034308779,0.018163471241170535
S14_D12 hbo,0.006002400960384154,0.0,0.01800720288115246,0.028811524609843937,0.012004801920768308,0.0012004801920768306,0.01680672268907563,0.0024009603841536613,0.015606242496998799,0.026410564225690276,0.021608643457382955,0.028811524609843937,0.030012004801920768,0.0,0.006002400960384154,0.024009603841536616,0.0012004801920768306,0.0,0.02040816326530612,0.010804321728691477,0.024009603841536616,0.025210084033613446,0.024009603841536616,0.030012004801920768,0.021608643457382955,0.031212484993997598,0.030012004801920768,0.030012004801920768,0.030012004801920768,0.015606242496998799,0.004801920768307323,0.0,0.024009603841536616,0.030012004801920768,0.030012004801920768,0.026410564225690276,0.0012004801920768306,0.0024009603841536613,0.0012004801920768306,0.030012004801920768,0.030012004801920768,0.024009603841536616,0.028811524609843937,0.027611044417767107,0.028811524609843937,0.024009603841536616,0.030012004801920768,0.024009603841536616,0.030012004801920768,0.030012004801920768,0.01920768307322929,0.021608643457382955
S14_D13 hbo,0.0059594755661501785,0.0,0.017878426698450536,0.028605482717520857,0.011918951132300357,0.0011918951132300357,0.0166865315852205,0.0023837902264600714,0.015494636471990465,0.026221692491060787,0.021454112038140644,0.028605482717520857,0.03098927294398093,0.0,0.0059594755661501785,0.025029797377830752,0.0011918951132300357,0.0,0.02026221692491061,0.010727056019070322,0.02264600715137068,0.025029797377830752,0.02264600715137068,0.03098927294398093,0.02026221692491061,0.03098927294398093,0.03098927294398093,0.03098927294398093,0.03098927294398093,0.015494636471990465,0.003575685339690107,0.0,0.025029797377830752,0.03098927294398093,0.03098927294398093,0.026221692491060787,0.0,0.0011918951132300357,0.0,0.03098927294398093,0.03098927294398093,0.025029797377830752,0.028605482717520857,0.027413587604290822,0.028605482717520857,0.02264600715137068,0.029797377830750895,0.025029797377830752,0.03098927294398093,0.03098927294398093,0.017878426698450536,0.021454112038140644
S14_D14 hbo,0.005875440658049354,0.0,0.01762632197414806,0.024676850763807285,0.011750881316098707,0.0011750881316098707,0.01645123384253819,0.0023501762632197414,0.01527614571092832,0.024676850763807285,0.021151586368977675,0.024676850763807285,0.024676850763807285,0.0,0.005875440658049354,0.01880141010575793,0.0011750881316098707,0.0,0.01880141010575793,0.010575793184488837,0.03290246768507638,0.03525264394829612,0.022326674500587545,0.024676850763807285,0.021151586368977675,0.03290246768507638,0.024676850763807285,0.024676850763807285,0.024676850763807285,0.01527614571092832,0.01410105757931845,0.0,0.01880141010575793,0.024676850763807285,0.024676850763807285,0.022326674500587545,0.009400705052878966,0.024676850763807285,0.023501762632197415,0.024676850763807285,0.024676850763807285,0.01880141010575793,0.024676850763807285,0.023501762632197415,0.023501762632197415,0.04465334900117509,0.024676850763807285,0.01880141010575793,0.024676850763807285,0.024676850763807285,0.03525264394829612,0.021151586368977675
S14_D16 hbo,0.011446409989594173,0.0,0.021852237252861603,0.031217481789802288,0.01040582726326743,0.001040582726326743,0.014568158168574402,0.002081165452653486,0.013527575442247659,0.029136316337148804,0.02081165452653486,0.031217481789802288,0.03329864724245578,0.0,0.011446409989594173,0.021852237252861603,0.001040582726326743,0.0,0.01768990634755463,0.009365244536940686,0.021852237252861603,0.022892819979188347,0.02081165452653486,0.03329864724245578,0.019771071800208116,0.030176899063475548,0.03329864724245578,0.030176899063475548,0.03329864724245578,0.013527575442247659,0.004162330905306972,0.0,0.021852237252861603,0.03329864724245578,0.030176899063475548,0.022892819979188347,0.001040582726326743,0.002081165452653486,0.001040582726326743,0.03329864724245578,0.03329864724245578,0.021852237252861603,0.031217481789802288,0.023933402705515087,0.02497398543184183,0.02081165452653486,0.031217481789802288,0.021852237252861603,0.031217481789802288,0.03329864724245578,0.01664932362122789,0.018730489073881373
S15_D13 hbo,0.0,0.0,0.01335113484646195,0.025367156208277702,0.012016021361815754,0.0,0.018691588785046728,0.0026702269692923898,0.017356475300400534,0.022696929238985315,0.017356475300400534,0.025367156208277702,0.03337783711615487,0.0,0.0,0.03337783711615487,0.0,0.0,0.022696929238985315,0.012016021361815754,0.018691588785046728,0.03337783711615487,0.025367156208277702,0.029372496662216287,0.01602136181575434,0.029372496662216287,0.03337783711615487,0.030707610146862484,0.03204272363150868,0.017356475300400534,0.004005340453938585,0.0,0.03337783711615487,0.03337783711615487,0.030707610146862484,0.025367156208277702,0.0,0.0013351134846461949,0.0,0.029372496662216287,0.028037383177570093,0.03337783711615487,0.025367156208277702,0.025367156208277702,0.0267022696929239,0.020026702269692925,0.0267022696929239,0.03204272363150868,0.028037383177570093,0.03337783711615487,0.020026702269692925,0.021361815754339118
S15_D15 hbo,0.010526315789473684,0.0,0.021052631578947368,0.030526315789473683,0.010526315789473684,0.0010526315789473684,0.014736842105263158,0.002105263157894737,0.01368421052631579,0.028421052631578948,0.021052631578947368,0.030526315789473683,0.03368421052631579,0.0,0.010526315789473684,0.023157894736842106,0.0010526315789473684,0.0,0.017894736842105262,0.009473684210526316,0.021052631578947368,0.023157894736842106,0.02,0.03368421052631579,0.018947368421052633,0.030526315789473683,0.03368421052631579,0.031578947368421054,0.03368421052631579,0.01368421052631579,0.003157894736842105,0.0,0.023157894736842106,0.03368421052631579,0.031578947368421054,0.023157894736842106,0.0,0.0010526315789473684,0.0,0.03368421052631579,0.03263157894736842,0.023157894736842106,0.030526315789473683,0.024210526315789474,0.02526315789473684,0.02,0.031578947368421054,0.023157894736842106,0.031578947368421054,0.03368421052631579,0.015789473684210527,0.018947368421052633
S15_D16 hbo,0.012682926829268294,0.0,0.0224390243902439,0.03121951219512195,0.00975609756097561,0.000975609756097561,0.013658536585365854,0.001951219512195122,0.012682926829268294,0.02926829268292683,0.01951219512195122,0.03121951219512195,0.03609756097560975,0.0,0.012682926829268294,0.025365853658536587,0.000975609756097561,0.0,0.016585365853658537,0.00878048780487805,0.01951219512195122,0.024390243902439025,0.018536585365853658,0.03414634146341464,0.0175609756097561,0.02829268292682927,0.03609756097560975,0.03024390243902439,0.03609756097560975,0.012682926829268294,0.002926829268292683,0.0,0.025365853658536587,0.037073170731707315,0.03024390243902439,0.021463414634146343,0.0,0.000975609756097561,0.0,0.03414634146341464,0.033170731707317075,0.025365853658536587,0.03121951219512195,0.0224390243902439,0.023414634146341463,0.018536585365853658,0.02926829268292683,0.023414634146341463,0.02926829268292683,0.03609756097560975,0.014634146341463415,0.0175609756097561
S16_D14 hbo,0.0,0.0,0.014184397163120567,0.02269503546099291,0.01276595744680851,0.0,0.019858156028368795,0.0028368794326241137,0.018439716312056736,0.02269503546099291,0.018439716312056736,0.02269503546099291,0.02269503546099291,0.0,0.0,0.02269503546099291,0.0,0.0,0.02269503546099291,0.01276595744680851,0.032624113475177303,0.0425531914893617,0.02695035460992908,0.02269503546099291,0.018439716312056736,0.032624113475177303,0.02269503546099291,0.02269503546099291,0.02269503546099291,0.018439716312056736,0.01702127659574468,0.0,0.02269503546099291,0.02269503546099291,0.02269503546099291,0.02269503546099291,0.011347517730496455,0.024113475177304965,0.02269503546099291,0.02269503546099291,0.02269503546099291,0.02269503546099291,0.02269503546099291,0.02269503546099291,0.02269503546099291,0.04397163120567376,0.02269503546099291,0.02269503546099291,0.02269503546099291,0.02269503546099291,0.0425531914893617,0.02269503546099291
S16_D16 hbo,0.004261363636363636,0.0,0.018465909090909092,0.028409090909090908,0.014204545454545454,0.0014204545454545455,0.019886363636363636,0.002840909090909091,0.018465909090909092,0.028409090909090908,0.022727272727272728,0.028409090909090908,0.028409090909090908,0.0,0.004261363636363636,0.024147727272727272,0.0014204545454545455,0.0,0.024147727272727272,0.01278409090909091,0.024147727272727272,0.024147727272727272,0.024147727272727272,0.028409090909090908,0.02130681818181818,0.028409090909090908,0.028409090909090908,0.028409090909090908,0.028409090909090908,0.018465909090909092,0.004261363636363636,0.0,0.024147727272727272,0.028409090909090908,0.028409090909090908,0.028409090909090908,0.0,0.0014204545454545455,0.0,0.028409090909090908,0.028409090909090908,0.024147727272727272,0.028409090909090908,0.028409090909090908,0.028409090909090908,0.02556818181818182,0.028409090909090908,0.024147727272727272,0.028409090909090908,0.028409090909090908,0.02130681818181818,0.02556818181818182
