,S1_D1 hbo,S1_D3 hbo,S2_D1 hbo,S2_D2 hbo,S2_D4 hbo,S3_D1 hbo,S3_D3 hbo,S3_D4 hbo,S3_D5 hbo,S4_D2 hbo,S4_D4 hbo,S4_D6 hbo,S4_D11 hbo,S5_D3 hbo,S5_D5 hbo,S5_D7 hbo,S6_D4 hbo,S6_D5 hbo,S6_D6 hbo,S6_D8 hbo,S7_D5 hbo,S7_D7 hbo,S7_D8 hbo,S8_D6 hbo,S8_D8 hbo,S8_D15 hbo,S9_D2 hbo,S9_D9 hbo,S9_D11 hbo,S10_D9 hbo,S10_D10 hbo,S10_D12 hbo,S11_D9 hbo,S11_D11 hbo,S11_D12 hbo,S11_D13 hbo,S12_D10 hbo,S12_D12 hbo,S12_D14 hbo,S13_D6 hbo,S13_D11 hbo,S13_D13 hbo,S13_D15 hbo,S14_D12 hbo,S14_D13 hbo,S14_D14 hbo,S14_D16 hbo,S15_D13 hbo,S15_D15 hbo,S15_D16 hbo,S16_D14 hbo,S16_D16 hbo
S1_D1 hbo,0.1870985603543743,0.02142857142857143,0.05957918050941306,0.0,0.0,0.07508305647840531,0.014285714285714285,0.0,0.02857142857142857,0.027131782945736434,0.007142857142857143,0.02142857142857143,0.0,0.03632336655592469,0.06733111849390919,0.02857142857142857,0.003875968992248062,0.0,0.003875968992248062,0.007751937984496124,0.007142857142857143,0.0,0.0,0.003875968992248062,0.01937984496124031,0.0,0.02142857142857143,0.003875968992248062,0.007142857142857143,0.023255813953488372,0.07630121816168328,0.0,0.007142857142857143,0.0,0.0,0.0,0.05957918050941306,0.02142857142857143,0.018770764119601328,0.0,0.018161683277962345,0.0,0.003875968992248062,0.0,0.0,0.0,0.003875968992248062,0.003875968992248062,0.0,0.0,0.08815060908084163,0.023255813953488372
S1_D3 hbo,0.013245033112582781,0.34592081161053967,0.023178807947019868,0.0,0.010638297872340425,0.04304635761589404,0.016556291390728478,0.0,0.033817105819360295,0.0,0.013245033112582781,0.019867549668874173,0.0,0.023178807947019868,0.023178807947019868,0.1189234887980837,0.0,0.010638297872340425,0.0,0.0,0.013245033112582781,0.10638297872340426,0.0,0.0,0.0,0.010638297872340425,0.019867549668874173,0.0,0.023883330984923207,0.0,0.016556291390728478,0.0,0.0033112582781456954,0.010638297872340425,0.0,0.006622516556291391,0.013245033112582781,0.019867549668874173,0.0,0.009933774834437087,0.016556291390728478,0.0,0.0,0.0,0.0,0.0,0.0,0.0,0.010638297872340425,0.0,0.023178807947019868,0.0
S2_D1 hbo,0.05987903225806451,0.020161290322580645,0.1663306451612903,0.0,0.0,0.028225806451612902,0.016129032258064516,0.0,0.028225806451612902,0.0,0.012096774193548387,0.020161290322580645,0.0,0.0844758064516129,0.0719758064516129,0.028225806451612902,0.00625,0.0,0.03306451612903226,0.0125,0.012096774193548387,0.0,0.0,0.00625,0.0,0.0,0.020161290322580645,0.00625,0.012096774193548387,0.04375,0.1443548387096774,0.0,0.004032258064516129,0.0,0.0,0.008064516129032258,0.020161290322580645,0.020161290322580645,0.0,0.008064516129032258,0.022379032258064514,0.0,0.00625,0.0,0.0,0.0,0.00625,0.00625,0.0,0.0,0.028225806451612902,0.0375
S2_D2 hbo,0.0,0.0,0.0,0.2195444915254237,0.1361228813559322,0.0,0.0,0.0,0.00423728813559322,0.0635593220338983,0.0,0.01694915254237288,0.0,0.0,0.0,0.0,0.0,0.0,0.00847457627118644,0.0,0.029661016949152543,0.0,0.07653601694915255,0.0,0.0,0.0,0.0,0.0,0.0,0.028336864406779662,0.04952330508474576,0.0,0.0,0.0,0.012711864406779662,0.046875,0.0,0.0,0.00423728813559322,0.07944915254237288,0.0,0.05111228813559322,0.04819915254237288,0.00423728813559322,0.0,0.00423728813559322,0.0,0.0,0.0,0.0579978813559322,0.0,0.0579978813559322
S2_D4 hbo,0.0,0.0,0.0,0.11666666666666667,0.25476190476190474,0.0,0.0,0.0,0.009523809523809525,0.0,0.0,0.0,0.0,0.0,0.0,0.0,0.0,0.009523809523809525,0.03333333333333333,0.0,0.0,0.0,0.07380952380952381,0.009523809523809525,0.0,0.009523809523809525,0.009523809523809525,0.0,0.06904761904761905,0.0,0.0,0.0,0.0,0.08095238095238094,0.03333333333333333,0.0,0.0,0.0,0.0,0.06666666666666667,0.047619047619047616,0.02857142857142857,0.1380952380952381,0.0,0.0,0.0,0.0,0.0,0.009523809523809525,0.0,0.0,0.0
S3_D1 hbo,0.04799165362545644,0.02546296296296296,0.013888888888888888,0.0,0.0,0.2195487741262389,0.009259259259259259,0.0,0.016203703703703703,0.06559728742827334,0.024550078247261346,0.011574074074074073,0.0,0.016203703703703703,0.016203703703703703,0.018518518518518517,0.0,0.0,0.0,0.0,0.006944444444444444,0.0,0.007042253521126761,0.032407407407407406,0.03270083463745435,0.0,0.011574074074074073,0.0,0.006944444444444444,0.0,0.09790688575899843,0.02112676056338028,0.0023148148148148147,0.0,0.0,0.004629629629629629,0.15515779864371415,0.011574074074074073,0.0734546165884194,0.00815075639019301,0.009259259259259259,0.0,0.0,0.017605633802816902,0.0,0.0,0.0,0.0,0.0,0.0,0.016203703703703703,0.0
S3_D3 hbo,0.015037593984962405,0.02631578947368421,0.022556390977443608,0.0,0.0,0.022556390977443608,0.3219742905651225,0.0,0.02631578947368421,0.0,0.1317002182876546,0.02631578947368421,0.0,0.02631578947368421,0.02631578947368421,0.02631578947368421,0.0,0.0,0.0,0.0,0.06718408925539655,0.0,0.0,0.0,0.08440455978656318,0.0,0.02631578947368421,0.0,0.018796992481203006,0.0,0.018796992481203006,0.0,0.0037593984962406013,0.0,0.0,0.007518796992481203,0.011278195488721804,0.02631578947368421,0.0,0.015037593984962405,0.022556390977443608,0.0,0.0,0.0,0.0,0.0,0.0,0.0,0.0,0.0,0.02631578947368421,0.0
S3_D4 hbo,0.0,0.0,0.0,0.0,0.0,0.0,0.0,0.13846153846153847,0.09230769230769231,0.0,0.0,0.0,0.0,0.0,0.0,0.0,0.0,0.0,0.0,0.0,0.0,0.0,0.0,0.0,0.015384615384615385,0.0,0.14615384615384616,0.0,0.0,0.0,0.0,0.0,0.0,0.0,0.0,0.0,0.0,0.0,0.015384615384615385,0.0,0.0,0.0,0.0,0.015384615384615385,0.0,0.07692307692307693,0.0,0.0,0.0,0.0,0.0,0.0
S3_D5 hbo,0.013513513513513514,0.02364864864864865,0.02364864864864865,0.0,0.005555555555555556,0.030405405405405407,0.02364864864864865,0.07777777777777778,0.14174174174174176,0.0,0.016891891891891893,0.02364864864864865,0.0,0.030405405405405407,0.030405405405405407,0.033783783783783786,0.0,0.011111111111111112,0.0,0.0,0.016891891891891893,0.0,0.0,0.016666666666666666,0.0033783783783783786,0.016666666666666666,0.11253753753753754,0.0,0.03355855855855856,0.006756756756756757,0.016891891891891893,0.0,0.0033783783783783786,0.016666666666666666,0.0,0.006756756756756757,0.02027027027027027,0.02364864864864865,0.03333333333333333,0.013513513513513514,0.036936936936936934,0.0,0.0,0.03333333333333333,0.0,0.06111111111111111,0.0,0.0,0.011111111111111112,0.0,0.030405405405405407,0.0
S4_D2 hbo,0.02727272727272727,0.0,0.0,0.048484848484848485,0.0,0.10730837789661318,0.0,0.0,0.0,0.20106951871657752,0.0,0.03404634581105169,0.0,0.0,0.0,0.0,0.0,0.0,0.0,0.0,0.021212121212121213,0.0,0.006060606060606061,0.0,0.07700534759358288,0.0,0.0,0.0,0.0,0.021925133689839574,0.13832442067736186,0.0,0.0,0.0,0.00909090909090909,0.0,0.15632798573975046,0.0,0.06862745098039216,0.0,0.0,0.0,0.0,0.0,0.0,0.0,0.0,0.0,0.0,0.040106951871657755,0.0,0.043137254901960784
S4_D4 hbo,0.016129032258064516,0.026881720430107527,0.026881720430107527,0.0,0.0,0.09267119411431805,0.13214487832484437,0.0,0.026881720430107527,0.0,0.17940011318619128,0.026881720430107527,0.0,0.026881720430107527,0.026881720430107527,0.026881720430107527,0.0,0.0,0.0,0.0,0.08729485002829654,0.0,0.0,0.0,0.039473684210526314,0.0,0.026881720430107527,0.0,0.021505376344086023,0.0,0.026881720430107527,0.0,0.005376344086021506,0.0,0.0,0.010752688172043012,0.010752688172043012,0.026881720430107527,0.06578947368421052,0.016129032258064516,0.026881720430107527,0.0,0.0,0.0,0.0,0.0,0.0,0.0,0.0,0.0,0.026881720430107527,0.0
S4_D6 hbo,0.014184397163120567,0.024822695035460994,0.024822695035460994,0.11538461538461539,0.0,0.024822695035460994,0.02127659574468085,0.0,0.028368794326241134,0.17662302236770322,0.01773049645390071,0.2753682487725041,0.0,0.028368794326241134,0.028368794326241134,0.028368794326241134,0.0,0.0,0.0,0.0,0.01773049645390071,0.0,0.0,0.0,0.0,0.0,0.024822695035460994,0.0,0.01773049645390071,0.0,0.01773049645390071,0.0,0.0035460992907801418,0.0,0.0,0.0070921985815602835,0.014184397163120567,0.024822695035460994,0.0,0.014184397163120567,0.02127659574468085,0.0,0.0,0.0,0.0,0.0,0.0,0.0,0.0,0.0,0.028368794326241134,0.0
S4_D11 hbo,0.0,0.0,0.0,0.0,0.0,0.0,0.0,0.0,0.0,0.0,0.0,0.0,0.08546155315196444,0.0,0.0,0.0,0.026970954356846474,0.006224066390041493,0.0,0.0,0.0,0.0,0.0,0.05015712078334693,0.0,0.04178891994652685,0.08126009132102988,0.07294397472178336,0.08962829215784995,0.024896265560165973,0.0,0.0,0.0,0.07294397472178336,0.0,0.04156322158370805,0.0,0.0,0.0,0.0,0.08962829215784995,0.029288702928870293,0.07707599090261984,0.012448132780082987,0.008368200836820083,0.0,0.035269709543568464,0.03319502074688797,0.014522821576763486,0.06248372367575826,0.0,0.04388097015573187
S5_D3 hbo,0.03646775165762507,0.022151898734177215,0.10151697809925658,0.0,0.0,0.028481012658227847,0.022151898734177215,0.0,0.03164556962025317,0.0,0.015822784810126583,0.02531645569620253,0.0,0.16973076150291339,0.05861965039180229,0.0379746835443038,0.007936507936507936,0.0,0.031746031746031744,0.015873015873015872,0.0189873417721519,0.0,0.0,0.007936507936507936,0.0,0.0,0.022151898734177215,0.007936507936507936,0.0189873417721519,0.0,0.1507434197307615,0.0,0.0031645569620253164,0.0,0.0,0.006329113924050633,0.0189873417721519,0.028481012658227847,0.0,0.0189873417721519,0.033252963632710464,0.0,0.007936507936507936,0.0,0.0,0.0,0.007936507936507936,0.007936507936507936,0.0,0.0,0.03481012658227848,0.0
S5_D5 hbo,0.09301537070524413,0.022151898734177215,0.08465189873417722,0.0,0.0,0.028481012658227847,0.022151898734177215,0.0,0.03164556962025317,0.0,0.015822784810126583,0.02531645569620253,0.0,0.052667269439421335,0.1062386980108499,0.0379746835443038,0.008928571428571428,0.0,0.008928571428571428,0.017857142857142856,0.0189873417721519,0.0,0.0,0.008928571428571428,0.0,0.0,0.022151898734177215,0.008928571428571428,0.0189873417721519,0.044642857142857144,0.07832278481012658,0.0,0.0031645569620253164,0.0,0.0,0.006329113924050633,0.0189873417721519,0.028481012658227847,0.0,0.0189873417721519,0.03424502712477396,0.0,0.008928571428571428,0.0,0.0,0.0,0.008928571428571428,0.008928571428571428,0.0,0.0,0.06159584086799276,0.044642857142857144
S5_D7 hbo,0.012578616352201259,0.18867924528301885,0.0220125786163522,0.0,0.0,0.02830188679245283,0.0220125786163522,0.0,0.031446540880503145,0.0,0.015723270440251572,0.025157232704402517,0.0,0.03459119496855346,0.03459119496855346,0.20440251572327042,0.0,0.0,0.0,0.0,0.018867924528301886,0.16666666666666666,0.0,0.0,0.0,0.0,0.0220125786163522,0.0,0.018867924528301886,0.0,0.015723270440251572,0.0,0.0031446540880503146,0.0,0.0,0.006289308176100629,0.0220125786163522,0.02830188679245283,0.0,0.018867924528301886,0.025157232704402517,0.0,0.0,0.0,0.0,0.0,0.0,0.0,0.0,0.0,0.03459119496855346,0.0
S6_D4 hbo,0.0,0.0,0.0,0.0,0.0,0.0,0.0,0.0,0.0,0.0,0.0,0.0,0.025252525252525252,0.0,0.0,0.0,0.1458058849363197,0.007575757575757576,0.0,0.0,0.0,0.0,0.0,0.020970575318401408,0.0,0.017676767676767676,0.045454545454545456,0.15162494510320595,0.04292929292929293,0.025252525252525252,0.0,0.0,0.0,0.025252525252525252,0.0,0.025252525252525252,0.0,0.0,0.0,0.0,0.0922266139657444,0.0,0.09398331137461571,0.010101010101010102,0.0,0.0,0.12307861220904699,0.11220904699165568,0.007575757575757576,0.025252525252525252,0.0,0.0025252525252525255
S6_D5 hbo,0.0,0.0,0.0,0.008928571428571428,0.02,0.0,0.0,0.0,0.04,0.008928571428571428,0.0,0.0,0.017857142857142856,0.0,0.0,0.0,0.017857142857142856,0.14714285714285713,0.0,0.0,0.0,0.05357142857142857,0.08035714285714286,0.06,0.0,0.06,0.07785714285714285,0.0,0.07785714285714285,0.017857142857142856,0.008928571428571428,0.0,0.0,0.07785714285714285,0.0,0.017857142857142856,0.0,0.0,0.0,0.0,0.07785714285714285,0.0,0.017857142857142856,0.0,0.0,0.0,0.017857142857142856,0.017857142857142856,0.04,0.026785714285714284,0.0,0.008928571428571428
S6_D6 hbo,0.0189873417721519,0.0,0.05757452021233156,0.02531645569620253,0.04430379746835443,0.0,0.0,0.0,0.0,0.0,0.0,0.0,0.0,0.02531645569620253,0.0189873417721519,0.0,0.0,0.0,0.3615761535320539,0.006329113924050633,0.0,0.0,0.02531645569620253,0.06451612903225806,0.0,0.0,0.0,0.0,0.0,0.0,0.05757452021233156,0.0,0.0,0.0,0.006329113924050633,0.0,0.19293589220089832,0.0,0.0,0.006329113924050633,0.012658227848101266,0.03164556962025317,0.04430379746835443,0.0,0.0,0.0,0.0,0.0,0.0,0.0,0.0,0.0
S6_D8 hbo,0.0,0.0,0.0,0.0,0.0,0.0,0.0,0.0,0.0,0.0,0.0,0.0,0.0,0.0,0.0,0.0,0.023255813953488372,0.0,0.0,0.6515934539190353,0.0,0.0,0.1739879414298019,0.023255813953488372,0.0,0.0,0.0,0.023255813953488372,0.0,0.0,0.0,0.0,0.0,0.0,0.0,0.0,0.011627906976744186,0.0,0.0,0.0,0.023255813953488372,0.0,0.023255813953488372,0.0,0.0,0.0,0.023255813953488372,0.023255813953488372,0.0,0.0,0.0,0.0
S7_D5 hbo,0.013888888888888888,0.027777777777777776,0.023148148148148147,0.060810810810810814,0.0,0.023148148148148147,0.06156156156156156,0.0,0.027777777777777776,0.060810810810810814,0.07044544544544545,0.027777777777777776,0.0,0.027777777777777776,0.027777777777777776,0.027777777777777776,0.0,0.0,0.0,0.0,0.12449949949949951,0.0,0.0,0.0,0.013513513513513514,0.0,0.027777777777777776,0.0,0.023148148148148147,0.0,0.05693193193193193,0.0,0.004629629629629629,0.0,0.033783783783783786,0.009259259259259259,0.009259259259259259,0.027777777777777776,0.0,0.018518518518518517,0.027777777777777776,0.0,0.0,0.0,0.0,0.0,0.0,0.0,0.0,0.06756756756756757,0.027777777777777776,0.0472972972972973
S7_D7 hbo,0.0,0.16666666666666666,0.0,0.0,0.0,0.0,0.0,0.0,0.0,0.0,0.0,0.0,0.0,0.0,0.0,0.16666666666666666,0.0,0.15384615384615385,0.0,0.0,0.0,0.358974358974359,0.1346153846153846,0.0,0.0,0.0,0.0,0.0,0.0,0.0,0.0,0.0,0.0,0.0,0.0,0.0,0.0,0.0,0.0,0.0,0.0,0.0,0.0,0.0,0.0,0.019230769230769232,0.0,0.0,0.0,0.0,0.0,0.0
S7_D8 hbo,0.0,0.0,0.0,0.08916083916083917,0.08158508158508158,0.01282051282051282,0.0,0.0,0.0,0.020396270396270396,0.0,0.0,0.0,0.0,0.0,0.0,0.0,0.07575757575757576,0.01282051282051282,0.06993006993006992,0.0,0.03787878787878788,0.40967365967365965,0.0,0.038461538461538464,0.0,0.0,0.0,0.0,0.0,0.020396270396270396,0.0,0.0,0.0,0.0,0.0,0.01282051282051282,0.0,0.0,0.055944055944055944,0.0,0.00641025641025641,0.04079254079254079,0.0,0.0,0.0,0.0,0.0,0.0,0.007575757575757576,0.0,0.007575757575757576
S8_D6 hbo,0.0,0.0,0.0,0.0,0.0,0.045112781954887216,0.0,0.0,0.001736111111111111,0.0,0.0,0.0,0.040504908103592314,0.0,0.0,0.0,0.02602861319966583,0.001736111111111111,0.022556390977443608,0.0,0.0,0.0,0.0,0.16371658312447784,0.0,0.06624634502923976,0.06798245614035087,0.05930190058479532,0.07839912280701755,0.0,0.03007518796992481,0.0,0.0,0.04513888888888889,0.0,0.005208333333333333,0.07894736842105263,0.0,0.022556390977443608,0.0,0.07839912280701755,0.022569444444444444,0.06103801169590643,0.0,0.005208333333333333,0.0,0.007231620718462823,0.003472222222222222,0.001736111111111111,0.024305555555555556,0.0,0.04079208437761069
S8_D8 hbo,0.04285714285714286,0.0,0.0,0.0,0.0,0.11602787456445993,0.06010452961672474,0.0,0.0,0.09163763066202091,0.007142857142857143,0.0,0.0,0.0,0.0,0.0,0.0,0.0,0.0,0.0,0.0,0.0,0.04285714285714286,0.0,0.2912891986062718,0.0,0.007142857142857143,0.0,0.0,0.0,0.11602787456445993,0.0,0.0,0.0,0.014285714285714285,0.0,0.11602787456445993,0.0,0.07317073170731707,0.02142857142857143,0.0,0.0,0.0,0.0,0.0,0.0,0.0,0.0,0.0,0.0,0.0,0.0
S8_D15 hbo,0.0,0.0,0.0,0.0,0.0020325203252032522,0.0,0.0,0.0,0.0040650406504065045,0.0,0.0,0.0,0.043645699614890884,0.0,0.0,0.0,0.05921052631578947,0.0040650406504065045,0.0,0.0,0.0,0.0,0.0,0.0862216516902011,0.0,0.11612109542148052,0.11456996148908857,0.10034231921266581,0.12018613607188702,0.0,0.0,0.0,0.0,0.044715447154471545,0.0,0.0,0.0,0.0,0.0,0.0,0.09686563970902867,0.012195121951219513,0.11050492083868207,0.0,0.0,0.0,0.006578947368421052,0.0,0.0040650406504065045,0.018292682926829267,0.0,0.05632220795892169
S9_D2 hbo,0.004366812227074236,0.006550218340611353,0.007641921397379912,0.0,0.0,0.007641921397379912,0.0054585152838427945,0.02689873417721519,0.026629263169531812,0.0,0.004366812227074236,0.006550218340611353,0.04922337073683047,0.007641921397379912,0.007641921397379912,0.007641921397379912,0.02292576419213974,0.004857387651318335,0.0,0.0,0.004366812227074236,0.0,0.0,0.04610718036592781,0.004746835443037975,0.04938228953623349,0.12529710905975347,0.06330495826654137,0.08251340445525399,0.013100436681222707,0.0054585152838427945,0.0,0.001091703056768559,0.061992150793212096,0.0,0.021834061135371178,0.004366812227074236,0.006550218340611353,0.0015822784810126582,0.0032751091703056767,0.07825714443646012,0.014240506329113924,0.06221325520977282,0.008132496821624011,0.0,0.014240506329113924,0.019650655021834062,0.021834061135371178,0.009224199878392571,0.03863799679398596,0.007641921397379912,0.034920678790558844
S9_D9 hbo,0.0,0.0,0.0,0.0,0.0,0.0,0.0,0.0,0.0,0.0,0.0,0.0,0.06189266057461881,0.0,0.0,0.0,0.04948911068390699,0.0016722408026755853,0.0,0.0,0.0,0.0,0.0,0.045466515682195244,0.0,0.05245174202722988,0.084224317278066,0.10951860532483607,0.08452058041239828,0.016722408026755852,0.0,0.0,0.0,0.06159639744028652,0.0,0.026755852842809364,0.0,0.0,0.0,0.0,0.09101861849208648,0.015748031496062992,0.09406683696310536,0.010033444816053512,0.0,0.0,0.04447238827588023,0.04584836594422353,0.011705685618729096,0.04840939614989598,0.0,0.04438680114818423
S9_D11 hbo,0.0033482142857142855,0.006696428571428571,0.005580357142857143,0.0,0.004858788303841174,0.005580357142857143,0.006696428571428571,0.0,0.009717576607682347,0.0,0.005580357142857143,0.006696428571428571,0.057459133577902465,0.006696428571428571,0.006696428571428571,0.006696428571428571,0.022321428571428572,0.0063693623219680615,0.0,0.0,0.005580357142857143,0.0,0.0,0.05503479715148899,0.0,0.05385128938282262,0.08359071536469573,0.06146148036253776,0.10920303733275788,0.013392857142857142,0.005580357142857143,0.0015105740181268882,0.005647793482952093,0.07019785822183859,0.0,0.029874298662063013,0.002232142857142857,0.006696428571428571,0.0,0.004464285714285714,0.08930594518774276,0.021148036253776436,0.07124649331031506,0.006696428571428571,0.0075528700906344415,0.0,0.020089285714285716,0.022321428571428572,0.010833648036253776,0.04123732196806215,0.006696428571428571,0.03355969464825205
S10_D9 hbo,0.036585365853658534,0.0,0.042682926829268296,0.006097560975609756,0.0,0.0,0.0026595744680851063,0.0,0.0026595744680851063,0.012195121951219513,0.0,0.0,0.02925531914893617,0.012195121951219513,0.03048780487804878,0.0,0.02925531914893617,0.007978723404255319,0.0,0.0,0.0,0.0,0.0,0.0,0.0026595744680851063,0.0,0.02925531914893617,0.02127659574468085,0.035352880124545925,0.17092631032693306,0.11728074727555787,0.006097560975609756,0.042682926829268296,0.02925531914893617,0.0,0.02925531914893617,0.0,0.0,0.0,0.0,0.02925531914893617,0.0,0.02925531914893617,0.013297872340425532,0.0,0.0,0.02925531914893617,0.02925531914893617,0.010638297872340425,0.04067202906071614,0.036585365853658534,0.08569019200830306
S10_D10 hbo,0.04958315885644676,0.01037344398340249,0.06803646884160036,0.013761467889908258,0.0,0.07753435608511934,0.008298755186721992,0.0,0.01037344398340249,0.05187673683809814,0.006224066390041493,0.01037344398340249,0.0,0.05165784765312726,0.028722067836613498,0.01037344398340249,0.0022935779816513763,0.0,0.0133236895199665,0.0045871559633027525,0.013104800334995621,0.0,0.0,0.023040465948456355,0.024134911873310745,0.0,0.01037344398340249,0.0022935779816513763,0.006224066390041493,0.05700635730328524,0.22005024934333245,0.0,0.002074688796680498,0.0,0.0,0.004149377593360996,0.07338497849175835,0.01037344398340249,0.03112033195020747,0.004149377593360996,0.010592333168373368,0.0,0.0022935779816513763,0.0,0.0,0.0,0.0022935779816513763,0.0022935779816513763,0.0,0.01998553427994975,0.01037344398340249,0.053294758079866
S10_D12 hbo,0.0,0.0,0.0,0.0,0.0,0.13636363636363635,0.0,0.0,0.0,0.0,0.0,0.0,0.0,0.0,0.0,0.0,0.0,0.0,0.0,0.0,0.0,0.0,0.0,0.0,0.0,0.0,0.0,0.0,0.045454545454545456,0.0,0.0,0.43636363636363634,0.045454545454545456,0.0,0.0,0.0,0.33636363636363636,0.0,0.0,0.0,0.0,0.0,0.0,0.0,0.0,0.0,0.0,0.0,0.0,0.0,0.0,0.0
S11_D9 hbo,0.013513513513513514,0.013513513513513514,0.013513513513513514,0.0,0.0,0.013513513513513514,0.013513513513513514,0.0,0.013513513513513514,0.0,0.0,0.013513513513513514,0.0,0.013513513513513514,0.013513513513513514,0.013513513513513514,0.0,0.0,0.0,0.0,0.0,0.0,0.0,0.0,0.0,0.0,0.013513513513513514,0.0,0.03409090909090909,0.045454545454545456,0.013513513513513514,0.011363636363636364,0.5955159705159705,0.0,0.0,0.0,0.013513513513513514,0.013513513513513514,0.0,0.0,0.013513513513513514,0.0,0.0,0.0,0.0,0.0,0.0,0.0,0.0,0.0,0.11087223587223588,0.0
S11_D11 hbo,0.0,0.0,0.0,0.0,0.009150718537000125,0.0,0.0,0.0,0.003861003861003861,0.0,0.0,0.0,0.06917051140877856,0.0,0.0,0.0,0.019855595667870037,0.009276166315877507,0.0,0.0,0.0,0.0,0.0,0.055859108205678604,0.0,0.04620659855316895,0.08990424152879026,0.06904506362990118,0.10266506836903949,0.021660649819494584,0.0,0.0,0.0,0.10291596392679425,0.0,0.032490974729241874,0.0,0.0,0.0,0.0,0.08797373959828833,0.019305019305019305,0.07252972415427289,0.010830324909747292,0.0,0.0,0.032490974729241874,0.036101083032490974,0.0164963829223757,0.05758749982576697,0.0,0.03462358697015736
S11_D12 hbo,0.0,0.0,0.0,0.03125,0.05625,0.0,0.0,0.0,0.0,0.03125,0.0,0.0,0.0,0.0,0.0,0.0,0.0,0.0,0.01875,0.0,0.04375,0.0,0.0,0.0,0.0,0.0,0.0,0.0,0.0,0.0,0.00625,0.0,0.0,0.0,0.10625,0.0,0.0,0.0,0.0,0.0,0.0625,0.01875,0.0625,0.0,0.0,0.0,0.0,0.0,0.0,0.04375,0.0,0.01875
S11_D13 hbo,0.0033783783783783786,0.0033783783783783786,0.0033783783783783786,0.005067567567567568,0.0,0.0033783783783783786,0.0033783783783783786,0.0,0.0033783783783783786,0.0,0.0033783783783783786,0.0033783783783783786,0.08134779516358463,0.0033783783783783786,0.0033783783783783786,0.0033783783783783786,0.018581081081081082,0.005067567567567568,0.0,0.0,0.0033783783783783786,0.0,0.0,0.043859649122807015,0.0,0.0,0.040866524419155996,0.02364864864864865,0.09349810336652442,0.02027027027027027,0.0033783783783783786,0.0,0.0016891891891891893,0.04626007586533902,0.0,0.13131223328591748,0.0016891891891891893,0.0033783783783783786,0.0,0.0016891891891891893,0.11981389284020863,0.06412991939307729,0.028716216216216218,0.010135135135135136,0.08739331436699857,0.0,0.03748814604077762,0.028716216216216218,0.011824324324324325,0.04626007586533902,0.0033783783783783786,0.0
S12_D10 hbo,0.04117252181696129,0.0045871559633027525,0.006880733944954129,0.0,0.0,0.16761766241515627,0.0022935779816513763,0.0,0.009174311926605505,0.09027000820466921,0.0,0.0045871559633027525,0.0,0.009174311926605505,0.009174311926605505,0.011467889908256881,0.0,0.0,0.030543745804430523,0.014488699932870889,0.0,0.0022935779816513763,0.008130081300813009,0.0481651376146789,0.03815171179234728,0.0,0.0045871559633027525,0.0,0.0,0.0,0.1004885507570672,0.024390243902439025,0.0,0.0,0.0,0.0,0.3173155814126949,0.0045871559633027525,0.0389908256880734,0.0,0.0022935779816513763,0.0,0.0,0.0,0.0,0.0,0.0,0.0,0.0,0.0,0.009174311926605505,0.0
S12_D12 hbo,0.014184397163120567,0.024822695035460994,0.024822695035460994,0.0,0.0,0.024822695035460994,0.024822695035460994,0.0,0.031914893617021274,0.0,0.01773049645390071,0.028368794326241134,0.0,0.031914893617021274,0.031914893617021274,0.031914893617021274,0.0,0.0,0.0,0.0,0.02127659574468085,0.0,0.0,0.0,0.0,0.0,0.024822695035460994,0.0,0.02127659574468085,0.0,0.01773049645390071,0.0,0.0035460992907801418,0.0,0.0,0.0070921985815602835,0.014184397163120567,0.028368794326241134,0.0,0.01773049645390071,0.024822695035460994,0.0,0.0,0.0,0.0,0.0,0.0,0.0,0.0,0.0,0.031914893617021274,0.0
S12_D14 hbo,0.007575757575757576,0.0,0.0,0.0,0.0,0.14779147406266052,0.0,0.030303030303030304,0.05303030303030303,0.0211864406779661,0.03787878787878788,0.0,0.0,0.0,0.0,0.0,0.0,0.0,0.0,0.0,0.0,0.0,0.0,0.03389830508474576,0.025423728813559324,0.0,0.022727272727272728,0.0,0.0,0.0,0.07203389830508475,0.0,0.0,0.0,0.0,0.0,0.07203389830508475,0.0,0.3531073446327684,0.024524910118130457,0.0,0.0,0.0,0.045454545454545456,0.0,0.05303030303030303,0.0,0.0,0.0,0.0,0.0,0.0
S13_D6 hbo,0.0072992700729927005,0.01824817518248175,0.014598540145985401,0.08721369242386107,0.08721369242386107,0.014598540145985401,0.021897810218978103,0.0,0.021897810218978103,0.0,0.01824817518248175,0.021897810218978103,0.0,0.021897810218978103,0.021897810218978103,0.021897810218978103,0.0,0.0,0.0,0.0,0.021897810218978103,0.0,0.07991442235086836,0.0,0.08620689655172414,0.0,0.01824817518248175,0.0,0.021897810218978103,0.0,0.014598540145985401,0.0,0.0036496350364963502,0.0,0.0,0.0072992700729927005,0.0036496350364963502,0.021897810218978103,0.014598540145985401,0.2589982381072238,0.021897810218978103,0.0,0.024540649383337526,0.0,0.0,0.0,0.0,0.0,0.0,0.0,0.021897810218978103,0.0
S13_D11 hbo,0.0044742729306487695,0.007829977628635347,0.006711409395973154,0.0,0.012658227848101266,0.006711409395973154,0.007829977628635347,0.0,0.010214368646107665,0.0,0.005592841163310962,0.008948545861297539,0.05163254325602469,0.008948545861297539,0.008948545861297539,0.008948545861297539,0.02772916489678022,0.004621527482796704,0.005063291139240506,0.0,0.006711409395973154,0.0,0.0,0.04468609294027695,0.0,0.043125761051170955,0.07444567156571234,0.0619941664542803,0.08471950839634129,0.013422818791946308,0.005592841163310962,0.0,0.0011185682326621924,0.05513550250615921,0.01139240506329114,0.032497946931724864,0.003355704697986577,0.008948545861297539,0.0,0.005592841163310962,0.10370685016849318,0.02278481012658228,0.0747996488545295,0.006711409395973154,0.010126582278481013,0.0,0.02772916489678022,0.029966301362104607,0.009095800413445473,0.03785574717526123,0.008948545861297539,0.028672160394189107
S13_D13 hbo,0.0,0.0,0.0,0.05693266171792153,0.02849946977730647,0.0,0.0,0.0,0.0,0.0,0.0,0.0,0.03804347826086957,0.0,0.0,0.0,0.0,0.0,0.016304347826086956,0.0,0.0,0.0,0.02034729586426299,0.03804347826086957,0.0,0.021739130434782608,0.029891304347826088,0.02717391304347826,0.03804347826086957,0.0,0.0,0.0,0.0,0.03260869565217391,0.002717391304347826,0.18160127253446448,0.0,0.0,0.0,0.012195121951219513,0.043478260869565216,0.23051431601272537,0.0529559915164369,0.0,0.07184517497348886,0.0,0.0,0.0,0.0,0.03260869565217391,0.0,0.024456521739130436
S13_D15 hbo,0.0,0.0,0.0,0.014034018344363172,0.03433762916521537,0.0,0.0,0.0,0.0,0.0,0.0,0.0,0.05285614768373389,0.0,0.0,0.0,0.04024439800301869,0.004629629629629629,0.0109717868338558,0.0,0.0,0.0,0.014034018344363172,0.03590502728433763,0.0,0.04837164750957854,0.06833662293432408,0.07463040365339216,0.080803243159565,0.018518518518518517,0.0,0.0,0.0,0.05437516931769805,0.012539184952978056,0.024691358024691357,0.0,0.0,0.0,0.0093318239869964,0.08878536321065056,0.02037617554858934,0.1307906652734239,0.009259259259259259,0.0,0.0,0.03407155849684585,0.03252834862030264,0.010802469135802469,0.040365339215913926,0.0,0.03441019389295251
S14_D12 hbo,0.0,0.0,0.0,0.0,0.0,0.052083333333333336,0.0,0.041666666666666664,0.07291666666666667,0.0,0.0,0.0,0.03260869565217391,0.0,0.0,0.0,0.03260869565217391,0.0,0.0,0.0,0.0,0.0,0.0,0.0,0.0,0.0,0.06385869565217392,0.03260869565217391,0.03260869565217391,0.03260869565217391,0.0,0.0,0.0,0.03260869565217391,0.0,0.03260869565217391,0.0,0.0,0.0625,0.0,0.03260869565217391,0.0,0.03260869565217391,0.22101449275362317,0.0,0.07291666666666667,0.03260869565217391,0.03260869565217391,0.021739130434782608,0.03260869565217391,0.0,0.0
S14_D13 hbo,0.0,0.0,0.0,0.0,0.0,0.0,0.0,0.0,0.0,0.0,0.0,0.0,0.05357142857142857,0.0,0.0,0.0,0.0,0.0,0.0,0.0,0.0,0.0,0.0,0.044642857142857144,0.0,0.0,0.008928571428571428,0.0,0.0625,0.0,0.0,0.0,0.0,0.017857142857142856,0.0,0.2621753246753247,0.0,0.0,0.0,0.0,0.08928571428571429,0.1810064935064935,0.0,0.0,0.2621753246753247,0.0,0.0,0.0,0.0,0.017857142857142856,0.0,0.0
S14_D14 hbo,0.0,0.0,0.0,0.0,0.0,0.0,0.0,0.09230769230769231,0.08461538461538462,0.0,0.0,0.0,0.0,0.0,0.0,0.0,0.0,0.05,0.0,0.0,0.0,0.15,0.0,0.0,0.0,0.0,0.08461538461538462,0.0,0.0,0.0,0.0,0.0,0.0,0.0,0.0,0.0,0.0,0.0,0.046153846153846156,0.0,0.0,0.0,0.0,0.046153846153846156,0.0,0.4461538461538461,0.0,0.0,0.0,0.0,0.0,0.0
S14_D16 hbo,0.0,0.0,0.0,0.0,0.0,0.0,0.0,0.0,0.0,0.0,0.0,0.0,0.03879310344827586,0.0,0.0,0.0,0.10768025078369906,0.00646551724137931,0.0,0.0,0.0,0.0,0.0,0.013401253918495297,0.0,0.004310344827586207,0.03879310344827586,0.12323667711598746,0.03879310344827586,0.02586206896551724,0.0,0.0,0.0,0.034482758620689655,0.0,0.04357366771159875,0.0,0.0,0.0,0.0,0.08424764890282133,0.0,0.07515673981191223,0.01293103448275862,0.0,0.0,0.1911833855799373,0.10721003134796238,0.015086206896551725,0.034482758620689655,0.0,0.004310344827586207
S15_D13 hbo,0.0,0.0,0.0,0.0,0.0,0.0,0.0,0.0,0.0,0.0,0.0,0.0,0.035864978902953586,0.0,0.0,0.0,0.12320675105485232,0.006329113924050633,0.0,0.0,0.0,0.0,0.0,0.011111111111111112,0.0,0.0,0.04008438818565401,0.13375527426160339,0.04008438818565401,0.02531645569620253,0.0,0.0,0.0,0.04008438818565401,0.0,0.0379746835443038,0.0,0.0,0.0,0.0,0.09563994374120957,0.0,0.08030942334739803,0.012658227848101266,0.0,0.0,0.1358649789029536,0.1289732770745429,0.014767932489451477,0.0379746835443038,0.0,0.0
S15_D15 hbo,0.0,0.0,0.0,0.0,0.02,0.0,0.0,0.0,0.04,0.0,0.0,0.0,0.035,0.0,0.0,0.0,0.025,0.04,0.0,0.0,0.0,0.0,0.0,0.06,0.0,0.06,0.095,0.035,0.095,0.03,0.0,0.0,0.0,0.095,0.0,0.035,0.0,0.0,0.0,0.0,0.095,0.0,0.035,0.03,0.0,0.0,0.035,0.035,0.07,0.035,0.0,0.0
S15_D16 hbo,0.0,0.0,0.0,0.024444444444444446,0.0,0.0,0.0,0.0,0.0,0.02666666666666667,0.0,0.0,0.06609053497942387,0.0,0.0,0.0,0.02263374485596708,0.006172839506172839,0.0,0.0,0.02,0.0,0.0,0.02666666666666667,0.0,0.024444444444444446,0.06609053497942387,0.057695473251028806,0.06609053497942387,0.03958847736625515,0.026008230452674898,0.0,0.0,0.06609053497942387,0.011111111111111112,0.03497942386831276,0.0,0.0,0.0,0.0,0.06609053497942387,0.022222222222222223,0.06164609053497942,0.012345679012345678,0.0,0.0,0.03497942386831276,0.03497942386831276,0.01440329218106996,0.111440329218107,0.0,0.05711934156378601
S16_D14 hbo,0.13495440729483282,0.02,0.02,0.0,0.0,0.025714285714285714,0.02,0.0,0.02857142857142857,0.0,0.014285714285714285,0.022857142857142857,0.0,0.03142857142857143,0.06334346504559271,0.03428571428571429,0.0,0.0,0.0,0.0,0.017142857142857144,0.0,0.0,0.0,0.0,0.0,0.02,0.0,0.017142857142857144,0.06382978723404255,0.014285714285714285,0.0,0.0858966565349544,0.0,0.0,0.005714285714285714,0.017142857142857144,0.025714285714285714,0.0,0.017142857142857144,0.022857142857142857,0.0,0.0,0.0,0.0,0.0,0.0,0.0,0.0,0.0,0.2776899696048632,0.0
S16_D16 hbo,0.010101010101010102,0.0,0.011784511784511785,0.013468013468013467,0.0,0.0,0.0,0.0,0.0,0.015151515151515152,0.0,0.0,0.04208754208754209,0.0,0.008417508417508417,0.0,0.022727272727272728,0.0,0.0,0.0,0.008417508417508417,0.0,0.0,0.05723905723905724,0.0,0.06397306397306397,0.06060606060606061,0.06060606060606061,0.06397306397306397,0.09006734006734006,0.09848484848484848,0.0,0.0,0.025252525252525252,0.0016835016835016834,0.0,0.0,0.0,0.0,0.0,0.06397306397306397,0.011784511784511785,0.06397306397306397,0.0,0.0,0.0,0.007575757575757576,0.0,0.0,0.05303030303030303,0.0,0.14562289562289563
