,S1_D1 hbo,S1_D3 hbo,S2_D1 hbo,S2_D2 hbo,S2_D4 hbo,S3_D1 hbo,S3_D3 hbo,S3_D4 hbo,S3_D5 hbo,S4_D2 hbo,S4_D4 hbo,S4_D6 hbo,S4_D11 hbo,S5_D3 hbo,S5_D5 hbo,S5_D7 hbo,S6_D4 hbo,S6_D5 hbo,S6_D6 hbo,S6_D8 hbo,S7_D5 hbo,S7_D7 hbo,S7_D8 hbo,S8_D6 hbo,S8_D8 hbo,S8_D15 hbo,S9_D2 hbo,S9_D9 hbo,S9_D11 hbo,S10_D9 hbo,S10_D10 hbo,S10_D12 hbo,S11_D9 hbo,S11_D11 hbo,S11_D12 hbo,S11_D13 hbo,S12_D10 hbo,S12_D12 hbo,S12_D14 hbo,S13_D6 hbo,S13_D11 hbo,S13_D13 hbo,S13_D15 hbo,S14_D12 hbo,S14_D13 hbo,S14_D14 hbo,S14_D16 hbo,S15_D13 hbo,S15_D15 hbo,S15_D16 hbo,S16_D14 hbo,S16_D16 hbo
S1_D1 hbo,0.0,0.0,0.0,0.0,0.0,0.0,0.0,0.0,0.0,0.0,0.0,0.0,0.0,0.0,0.0,0.0,0.0,0.0,0.0,0.0,0.0,0.0,0.0,0.0,0.0,0.0,0.0,0.0,0.0,0.0,0.0,0.0,0.0,0.0,0.0,0.0,0.0,0.0,0.0,0.0,0.0,0.0,0.0,0.0,0.0,0.0,0.0,0.0,0.0,0.0,0.0,0.0
S1_D3 hbo,0.0,0.0,0.0,0.0,0.0,0.0,0.0,0.0,0.0,0.0,0.0,0.0,0.0,0.0,0.0,0.0,0.0,0.0,0.0,0.0,0.0,0.0,0.0,0.0,0.0,0.0,0.0,0.0,0.0,0.0,0.0,0.0,0.0,0.0,0.0,0.0,0.0,0.0,0.0,0.0,0.0,0.0,0.0,0.0,0.0,0.0,0.0,0.0,0.0,0.0,0.0,0.0
S2_D1 hbo,0.0,0.0,0.03165938864628821,0.0,0.025109170305676855,0.0,0.0,0.02947598253275109,0.014192139737991267,0.03275109170305677,0.03275109170305677,0.017467248908296942,0.03275109170305677,0.0,0.0,0.0,0.03165938864628821,0.027292576419213975,0.03165938864628821,0.03275109170305677,0.03165938864628821,0.03275109170305677,0.03275109170305677,0.02947598253275109,0.02292576419213974,0.03275109170305677,0.0,0.0,0.03275109170305677,0.03165938864628821,0.0,0.0,0.03275109170305677,0.03275109170305677,0.02074235807860262,0.03275109170305677,0.0,0.0,0.0,0.03275109170305677,0.03275109170305677,0.03275109170305677,0.03165938864628821,0.0,0.03275109170305677,0.0032751091703056767,0.03275109170305677,0.03275109170305677,0.0,0.03275109170305677,0.03056768558951965,0.0
S2_D2 hbo,0.0,0.0,0.0,0.0,0.0,0.0,0.0,0.0,0.0,0.0,0.0,0.0,0.0,0.0,0.0,0.0,0.0,0.0,0.0,0.0,0.0,0.0,0.0,0.0,0.0,0.0,0.0,0.0,0.0,0.0,0.0,0.0,0.0,0.0,0.0,0.0,0.0,0.0,0.0,0.0,0.0,0.0,0.0,0.0,0.0,0.0,0.0,0.0,0.0,0.0,0.0,0.0
S2_D4 hbo,0.0,0.0,0.03146374829001368,0.0,0.030095759233926128,0.0,0.0,0.03146374829001368,0.017783857729138167,0.03146374829001368,0.03146374829001368,0.02188782489740082,0.03146374829001368,0.0,0.0,0.0,0.03146374829001368,0.028727770177838577,0.03146374829001368,0.03146374829001368,0.03146374829001368,0.03146374829001368,0.03146374829001368,0.03146374829001368,0.028727770177838577,0.03146374829001368,0.0,0.0,0.03146374829001368,0.03146374829001368,0.0,0.0,0.03146374829001368,0.03146374829001368,0.023255813953488372,0.03146374829001368,0.0,0.0,0.0,0.03146374829001368,0.03146374829001368,0.03146374829001368,0.03146374829001368,0.0,0.03146374829001368,0.0,0.03146374829001368,0.03146374829001368,0.0,0.03146374829001368,0.03146374829001368,0.0
S3_D1 hbo,0.0,0.0,0.0,0.0,0.0,0.0,0.0,0.0,0.0,0.0,0.0,0.0,0.0,0.0,0.0,0.0,0.0,0.0,0.0,0.0,0.0,0.0,0.0,0.0,0.0,0.0,0.0,0.0,0.0,0.0,0.0,0.0,0.0,0.0,0.0,0.0,0.0,0.0,0.0,0.0,0.0,0.0,0.0,0.0,0.0,0.0,0.0,0.0,0.0,0.0,0.0,0.0
S3_D3 hbo,0.0,0.0,0.0,0.0,0.0,0.0,0.0,0.0,0.0,0.0,0.0,0.0,0.0,0.0,0.0,0.0,0.0,0.0,0.0,0.0,0.0,0.0,0.0,0.0,0.0,0.0,0.0,0.0,0.0,0.0,0.0,0.0,0.0,0.0,0.0,0.0,0.0,0.0,0.0,0.0,0.0,0.0,0.0,0.0,0.0,0.0,0.0,0.0,0.0,0.0,0.0,0.0
S3_D4 hbo,0.0,0.0,0.030156815440289506,0.0,0.027744270205066344,0.0,0.0,0.031363088057901084,0.015681544028950542,0.032569360675512665,0.032569360675512665,0.019300361881785282,0.032569360675512665,0.0,0.0,0.0,0.032569360675512665,0.026537997587454766,0.032569360675512665,0.032569360675512665,0.030156815440289506,0.032569360675512665,0.032569360675512665,0.030156815440289506,0.025331724969843185,0.032569360675512665,0.0,0.0,0.032569360675512665,0.030156815440289506,0.0,0.0,0.032569360675512665,0.032569360675512665,0.021712907117008445,0.032569360675512665,0.0,0.0,0.0,0.032569360675512665,0.032569360675512665,0.032569360675512665,0.030156815440289506,0.0,0.032569360675512665,0.0,0.032569360675512665,0.032569360675512665,0.0,0.032569360675512665,0.030156815440289506,0.0
S3_D5 hbo,0.0,0.0,0.030373831775700934,0.0,0.030373831775700934,0.0,0.0,0.030373831775700934,0.028037383177570093,0.030373831775700934,0.030373831775700934,0.030373831775700934,0.030373831775700934,0.0,0.0,0.0,0.030373831775700934,0.030373831775700934,0.030373831775700934,0.030373831775700934,0.030373831775700934,0.030373831775700934,0.030373831775700934,0.030373831775700934,0.030373831775700934,0.030373831775700934,0.0,0.0,0.030373831775700934,0.030373831775700934,0.0,0.0,0.030373831775700934,0.030373831775700934,0.030373831775700934,0.030373831775700934,0.0,0.0,0.0,0.030373831775700934,0.030373831775700934,0.030373831775700934,0.030373831775700934,0.0,0.030373831775700934,0.0,0.030373831775700934,0.030373831775700934,0.0,0.030373831775700934,0.030373831775700934,0.0
S4_D2 hbo,0.0,0.0,0.02967359050445104,0.0,0.02274975272007913,0.0,0.0,0.026706231454005934,0.012858555885262116,0.036597428288822946,0.033630069238377844,0.01582591493570722,0.03758654797230465,0.0,0.0,0.0,0.03066271018793274,0.024727992087042534,0.03066271018793274,0.03066271018793274,0.02967359050445104,0.032640949554896145,0.033630069238377844,0.026706231454005934,0.020771513353115726,0.03066271018793274,0.0,0.0,0.03758654797230465,0.028684470820969338,0.0,0.0,0.033630069238377844,0.03461918892185954,0.018793273986152326,0.03758654797230465,0.0,0.0,0.0,0.03165182987141444,0.03461918892185954,0.03758654797230465,0.02967359050445104,0.0,0.03560830860534125,0.003956478733926805,0.03165182987141444,0.03560830860534125,0.0,0.03461918892185954,0.027695351137487636,0.0
S4_D4 hbo,0.0,0.0,0.02971311475409836,0.0,0.0235655737704918,0.0,0.0,0.027663934426229508,0.01331967213114754,0.03483606557377049,0.03381147540983607,0.01639344262295082,0.03483606557377049,0.0,0.0,0.0,0.031762295081967214,0.025614754098360656,0.031762295081967214,0.031762295081967214,0.02971311475409836,0.03278688524590164,0.03381147540983607,0.027663934426229508,0.02151639344262295,0.031762295081967214,0.0,0.0,0.03483606557377049,0.02971311475409836,0.0,0.0,0.03381147540983607,0.03483606557377049,0.0194672131147541,0.03483606557377049,0.0,0.0,0.0,0.03278688524590164,0.03483606557377049,0.03483606557377049,0.02971311475409836,0.0,0.03483606557377049,0.0030737704918032786,0.031762295081967214,0.03483606557377049,0.0,0.03483606557377049,0.028688524590163935,0.0
S4_D6 hbo,0.0,0.0,0.03065134099616858,0.0,0.03065134099616858,0.0,0.0,0.03065134099616858,0.02490421455938697,0.03065134099616858,0.03065134099616858,0.028735632183908046,0.03065134099616858,0.0,0.0,0.0,0.03065134099616858,0.03065134099616858,0.03065134099616858,0.03065134099616858,0.03065134099616858,0.03065134099616858,0.03065134099616858,0.03065134099616858,0.03065134099616858,0.03065134099616858,0.0,0.0,0.03065134099616858,0.03065134099616858,0.0,0.0,0.03065134099616858,0.03065134099616858,0.02681992337164751,0.03065134099616858,0.0,0.0,0.0,0.03065134099616858,0.03065134099616858,0.03065134099616858,0.03065134099616858,0.0,0.03065134099616858,0.0,0.03065134099616858,0.03065134099616858,0.0,0.03065134099616858,0.03065134099616858,0.0
S4_D11 hbo,0.0,0.0,0.02967359050445104,0.0,0.02274975272007913,0.0,0.0,0.026706231454005934,0.012858555885262116,0.036597428288822946,0.033630069238377844,0.01582591493570722,0.03758654797230465,0.0,0.0,0.0,0.03066271018793274,0.024727992087042534,0.03066271018793274,0.03066271018793274,0.02967359050445104,0.032640949554896145,0.033630069238377844,0.026706231454005934,0.020771513353115726,0.03066271018793274,0.0,0.0,0.03758654797230465,0.028684470820969338,0.0,0.0,0.033630069238377844,0.03461918892185954,0.018793273986152326,0.03758654797230465,0.0,0.0,0.0,0.03165182987141444,0.03461918892185954,0.03758654797230465,0.02967359050445104,0.0,0.03560830860534125,0.003956478733926805,0.03165182987141444,0.03560830860534125,0.0,0.03461918892185954,0.027695351137487636,0.0
S5_D3 hbo,0.0,0.0,0.0,0.0,0.0,0.0,0.0,0.0,0.0,0.0,0.0,0.0,0.0,0.0,0.0,0.0,0.0,0.0,0.0,0.0,0.0,0.0,0.0,0.0,0.0,0.0,0.0,0.0,0.0,0.0,0.0,0.0,0.0,0.0,0.0,0.0,0.0,0.0,0.0,0.0,0.0,0.0,0.0,0.0,0.0,0.0,0.0,0.0,0.0,0.0,0.0,0.0
S5_D5 hbo,0.0,0.0,0.0,0.0,0.0,0.0,0.0,0.0,0.0,0.0,0.0,0.0,0.0,0.0,0.0,0.0,0.0,0.0,0.0,0.0,0.0,0.0,0.0,0.0,0.0,0.0,0.0,0.0,0.0,0.0,0.0,0.0,0.0,0.0,0.0,0.0,0.0,0.0,0.0,0.0,0.0,0.0,0.0,0.0,0.0,0.0,0.0,0.0,0.0,0.0,0.0,0.0
S5_D7 hbo,0.0,0.0,0.0,0.0,0.0,0.0,0.0,0.0,0.0,0.0,0.0,0.0,0.0,0.0,0.0,0.0,0.0,0.0,0.0,0.0,0.0,0.0,0.0,0.0,0.0,0.0,0.0,0.0,0.0,0.0,0.0,0.0,0.0,0.0,0.0,0.0,0.0,0.0,0.0,0.0,0.0,0.0,0.0,0.0,0.0,0.0,0.0,0.0,0.0,0.0,0.0,0.0
S6_D4 hbo,0.0,0.0,0.02947598253275109,0.0,0.025109170305676855,0.0,0.0,0.02947598253275109,0.014192139737991267,0.03384279475982533,0.03384279475982533,0.017467248908296942,0.03384279475982533,0.0,0.0,0.0,0.03275109170305677,0.026200873362445413,0.03275109170305677,0.03165938864628821,0.02947598253275109,0.03275109170305677,0.03384279475982533,0.02947598253275109,0.02292576419213974,0.03165938864628821,0.0,0.0,0.03384279475982533,0.02947598253275109,0.0,0.0,0.03384279475982533,0.03384279475982533,0.02074235807860262,0.03384279475982533,0.0,0.0,0.0,0.03275109170305677,0.03384279475982533,0.03384279475982533,0.02947598253275109,0.0,0.03384279475982533,0.001091703056768559,0.03165938864628821,0.03384279475982533,0.0,0.03384279475982533,0.02947598253275109,0.0
S6_D5 hbo,0.0,0.0,0.0316055625790139,0.0,0.029077117572692796,0.0,0.0,0.03034134007585335,0.01643489254108723,0.0316055625790139,0.0316055625790139,0.020227560050568902,0.0316055625790139,0.0,0.0,0.0,0.0316055625790139,0.03034134007585335,0.0316055625790139,0.0316055625790139,0.0316055625790139,0.0316055625790139,0.0316055625790139,0.0316055625790139,0.02654867256637168,0.0316055625790139,0.0,0.0,0.0316055625790139,0.0316055625790139,0.0,0.0,0.0316055625790139,0.0316055625790139,0.02402022756005057,0.0316055625790139,0.0,0.0,0.0,0.0316055625790139,0.0316055625790139,0.0316055625790139,0.0316055625790139,0.0,0.0316055625790139,0.0012642225031605564,0.0316055625790139,0.0316055625790139,0.0,0.0316055625790139,0.0316055625790139,0.0
S6_D6 hbo,0.0,0.0,0.02947598253275109,0.0,0.025109170305676855,0.0,0.0,0.02947598253275109,0.014192139737991267,0.03384279475982533,0.03384279475982533,0.017467248908296942,0.03384279475982533,0.0,0.0,0.0,0.03275109170305677,0.026200873362445413,0.03275109170305677,0.03165938864628821,0.02947598253275109,0.03275109170305677,0.03384279475982533,0.02947598253275109,0.02292576419213974,0.03165938864628821,0.0,0.0,0.03384279475982533,0.02947598253275109,0.0,0.0,0.03384279475982533,0.03384279475982533,0.02074235807860262,0.03384279475982533,0.0,0.0,0.0,0.03275109170305677,0.03384279475982533,0.03384279475982533,0.02947598253275109,0.0,0.03384279475982533,0.001091703056768559,0.03165938864628821,0.03384279475982533,0.0,0.03384279475982533,0.02947598253275109,0.0
S6_D8 hbo,0.0,0.0,0.030107526881720432,0.0,0.024731182795698924,0.0,0.0,0.02903225806451613,0.013978494623655914,0.03333333333333333,0.03333333333333333,0.017204301075268817,0.03333333333333333,0.0,0.0,0.0,0.03333333333333333,0.026881720430107527,0.03333333333333333,0.03225806451612903,0.030107526881720432,0.03333333333333333,0.03333333333333333,0.02903225806451613,0.02258064516129032,0.03225806451612903,0.0,0.0,0.03333333333333333,0.030107526881720432,0.0,0.0,0.03333333333333333,0.03333333333333333,0.02043010752688172,0.03333333333333333,0.0,0.0,0.0,0.03333333333333333,0.03333333333333333,0.03333333333333333,0.030107526881720432,0.0,0.03333333333333333,0.002150537634408602,0.03225806451612903,0.03333333333333333,0.0,0.03333333333333333,0.030107526881720432,0.0
S7_D5 hbo,0.0,0.0,0.03165938864628821,0.0,0.025109170305676855,0.0,0.0,0.02947598253275109,0.014192139737991267,0.03275109170305677,0.03275109170305677,0.017467248908296942,0.03275109170305677,0.0,0.0,0.0,0.03165938864628821,0.027292576419213975,0.03165938864628821,0.03275109170305677,0.03165938864628821,0.03275109170305677,0.03275109170305677,0.02947598253275109,0.02292576419213974,0.03275109170305677,0.0,0.0,0.03275109170305677,0.03165938864628821,0.0,0.0,0.03275109170305677,0.03275109170305677,0.02074235807860262,0.03275109170305677,0.0,0.0,0.0,0.03275109170305677,0.03275109170305677,0.03275109170305677,0.03165938864628821,0.0,0.03275109170305677,0.0032751091703056767,0.03275109170305677,0.03275109170305677,0.0,0.03275109170305677,0.03056768558951965,0.0
S7_D7 hbo,0.0,0.0,0.02973240832507433,0.0,0.022794846382556987,0.0,0.0,0.026759167492566897,0.01288404360753221,0.03468780971258672,0.03369672943508424,0.015857284440039643,0.03468780971258672,0.0,0.0,0.0,0.030723488602576808,0.024777006937561942,0.030723488602576808,0.030723488602576808,0.02973240832507433,0.03468780971258672,0.03468780971258672,0.026759167492566897,0.02081268582755203,0.030723488602576808,0.0,0.0,0.035678889990089196,0.028741328047571853,0.0,0.0,0.03468780971258672,0.03468780971258672,0.018830525272547076,0.035678889990089196,0.0,0.0,0.0,0.031714568880079286,0.03468780971258672,0.035678889990089196,0.02973240832507433,0.0,0.035678889990089196,0.005946481665014866,0.03369672943508424,0.035678889990089196,0.0,0.035678889990089196,0.027750247770069375,0.0
S7_D8 hbo,0.0,0.0,0.03015075376884422,0.0,0.023115577889447236,0.0,0.0,0.027135678391959798,0.01306532663316583,0.035175879396984924,0.034170854271356785,0.016080402010050253,0.035175879396984924,0.0,0.0,0.0,0.031155778894472363,0.02512562814070352,0.031155778894472363,0.031155778894472363,0.03015075376884422,0.033165829145728645,0.034170854271356785,0.027135678391959798,0.021105527638190954,0.031155778894472363,0.0,0.0,0.035175879396984924,0.02914572864321608,0.0,0.0,0.034170854271356785,0.035175879396984924,0.019095477386934675,0.035175879396984924,0.0,0.0,0.0,0.032160804020100506,0.035175879396984924,0.035175879396984924,0.03015075376884422,0.0,0.035175879396984924,0.004020100502512563,0.032160804020100506,0.035175879396984924,0.0,0.035175879396984924,0.02814070351758794,0.0
S8_D6 hbo,0.0,0.0,0.031026252983293555,0.0,0.027446300715990454,0.0,0.0,0.032219570405727926,0.015513126491646777,0.032219570405727926,0.032219570405727926,0.01909307875894988,0.032219570405727926,0.0,0.0,0.0,0.032219570405727926,0.027446300715990454,0.032219570405727926,0.032219570405727926,0.031026252983293555,0.032219570405727926,0.032219570405727926,0.031026252983293555,0.025059665871121718,0.032219570405727926,0.0,0.0,0.032219570405727926,0.031026252983293555,0.0,0.0,0.032219570405727926,0.032219570405727926,0.022673031026252982,0.032219570405727926,0.0,0.0,0.0,0.032219570405727926,0.032219570405727926,0.032219570405727926,0.031026252983293555,0.0,0.032219570405727926,0.0,0.032219570405727926,0.032219570405727926,0.0,0.032219570405727926,0.031026252983293555,0.0
S8_D8 hbo,0.0,0.0,0.031203566121842496,0.0,0.031203566121842496,0.0,0.0,0.031203566121842496,0.019316493313521546,0.031203566121842496,0.031203566121842496,0.0237741456166419,0.031203566121842496,0.0,0.0,0.0,0.031203566121842496,0.029717682020802376,0.031203566121842496,0.031203566121842496,0.031203566121842496,0.031203566121842496,0.031203566121842496,0.031203566121842496,0.029717682020802376,0.031203566121842496,0.0,0.0,0.031203566121842496,0.031203566121842496,0.0,0.0,0.031203566121842496,0.031203566121842496,0.0237741456166419,0.031203566121842496,0.0,0.0,0.0,0.031203566121842496,0.031203566121842496,0.031203566121842496,0.031203566121842496,0.0,0.031203566121842496,0.0,0.031203566121842496,0.031203566121842496,0.0,0.031203566121842496,0.031203566121842496,0.0
S8_D15 hbo,0.0,0.0,0.030107526881720432,0.0,0.024731182795698924,0.0,0.0,0.02903225806451613,0.013978494623655914,0.03333333333333333,0.03333333333333333,0.017204301075268817,0.03333333333333333,0.0,0.0,0.0,0.03333333333333333,0.026881720430107527,0.03333333333333333,0.03225806451612903,0.030107526881720432,0.03333333333333333,0.03333333333333333,0.02903225806451613,0.02258064516129032,0.03225806451612903,0.0,0.0,0.03333333333333333,0.030107526881720432,0.0,0.0,0.03333333333333333,0.03333333333333333,0.02043010752688172,0.03333333333333333,0.0,0.0,0.0,0.03333333333333333,0.03333333333333333,0.03333333333333333,0.030107526881720432,0.0,0.03333333333333333,0.002150537634408602,0.03225806451612903,0.03333333333333333,0.0,0.03333333333333333,0.030107526881720432,0.0
S9_D2 hbo,0.0,0.0,0.0,0.0,0.0,0.0,0.0,0.0,0.0,0.0,0.0,0.0,0.0,0.0,0.0,0.0,0.0,0.0,0.0,0.0,0.0,0.0,0.0,0.0,0.0,0.0,0.0,0.0,0.0,0.0,0.0,0.0,0.0,0.0,0.0,0.0,0.0,0.0,0.0,0.0,0.0,0.0,0.0,0.0,0.0,0.0,0.0,0.0,0.0,0.0,0.0,0.0
S9_D9 hbo,0.0,0.0,0.0,0.0,0.0,0.0,0.0,0.0,0.0,0.0,0.0,0.0,0.0,0.0,0.0,0.0,0.0,0.0,0.0,0.0,0.0,0.0,0.0,0.0,0.0,0.0,0.0,0.0,0.0,0.0,0.0,0.0,0.0,0.0,0.0,0.0,0.0,0.0,0.0,0.0,0.0,0.0,0.0,0.0,0.0,0.0,0.0,0.0,0.0,0.0,0.0,0.0
S9_D11 hbo,0.0,0.0,0.028985507246376812,0.0,0.022222222222222223,0.0,0.0,0.02608695652173913,0.012560386473429951,0.03671497584541063,0.03285024154589372,0.015458937198067632,0.03768115942028986,0.0,0.0,0.0,0.02995169082125604,0.024154589371980676,0.02995169082125604,0.02995169082125604,0.028985507246376812,0.033816425120772944,0.033816425120772944,0.02608695652173913,0.020289855072463767,0.02995169082125604,0.0,0.0,0.03864734299516908,0.028019323671497585,0.0,0.0,0.033816425120772944,0.034782608695652174,0.018357487922705314,0.03864734299516908,0.0,0.0,0.0,0.030917874396135265,0.034782608695652174,0.03864734299516908,0.028985507246376812,0.0,0.03671497584541063,0.005797101449275362,0.03285024154589372,0.03671497584541063,0.0,0.035748792270531404,0.02705314009661836,0.0
S10_D9 hbo,0.0,0.0,0.03135498320268757,0.0,0.025755879059350503,0.0,0.0,0.030235162374020158,0.014557670772676373,0.032474804031354984,0.032474804031354984,0.01791713325867861,0.032474804031354984,0.0,0.0,0.0,0.032474804031354984,0.027995520716685332,0.032474804031354984,0.032474804031354984,0.03135498320268757,0.032474804031354984,0.032474804031354984,0.030235162374020158,0.023516237402015677,0.032474804031354984,0.0,0.0,0.032474804031354984,0.03135498320268757,0.0,0.0,0.032474804031354984,0.032474804031354984,0.02127659574468085,0.032474804031354984,0.0,0.0,0.0,0.032474804031354984,0.032474804031354984,0.032474804031354984,0.03135498320268757,0.0,0.032474804031354984,0.0022396416573348264,0.032474804031354984,0.032474804031354984,0.0,0.032474804031354984,0.03135498320268757,0.0
S10_D10 hbo,0.0,0.0,0.0,0.0,0.0,0.0,0.0,0.0,0.0,0.0,0.0,0.0,0.0,0.0,0.0,0.0,0.0,0.0,0.0,0.0,0.0,0.0,0.0,0.0,0.0,0.0,0.0,0.0,0.0,0.0,0.0,0.0,0.0,0.0,0.0,0.0,0.0,0.0,0.0,0.0,0.0,0.0,0.0,0.0,0.0,0.0,0.0,0.0,0.0,0.0,0.0,0.0
S10_D12 hbo,0.0,0.0,0.0,0.0,0.0,0.0,0.0,0.0,0.0,0.0,0.0,0.0,0.0,0.0,0.0,0.0,0.0,0.0,0.0,0.0,0.0,0.0,0.0,0.0,0.0,0.0,0.0,0.0,0.0,0.0,0.0,0.0,0.0,0.0,0.0,0.0,0.0,0.0,0.0,0.0,0.0,0.0,0.0,0.0,0.0,0.0,0.0,0.0,0.0,0.0,0.0,0.0
S11_D9 hbo,0.0,0.0,0.03015075376884422,0.0,0.023115577889447236,0.0,0.0,0.027135678391959798,0.01306532663316583,0.035175879396984924,0.034170854271356785,0.016080402010050253,0.035175879396984924,0.0,0.0,0.0,0.031155778894472363,0.02512562814070352,0.031155778894472363,0.031155778894472363,0.03015075376884422,0.033165829145728645,0.034170854271356785,0.027135678391959798,0.021105527638190954,0.031155778894472363,0.0,0.0,0.035175879396984924,0.02914572864321608,0.0,0.0,0.034170854271356785,0.035175879396984924,0.019095477386934675,0.035175879396984924,0.0,0.0,0.0,0.032160804020100506,0.035175879396984924,0.035175879396984924,0.03015075376884422,0.0,0.035175879396984924,0.004020100502512563,0.032160804020100506,0.035175879396984924,0.0,0.035175879396984924,0.02814070351758794,0.0
S11_D11 hbo,0.0,0.0,0.029940119760479042,0.0,0.022954091816367265,0.0,0.0,0.02694610778443114,0.012974051896207584,0.03592814371257485,0.033932135728542916,0.015968063872255488,0.03592814371257485,0.0,0.0,0.0,0.03093812375249501,0.0249500998003992,0.03093812375249501,0.03093812375249501,0.029940119760479042,0.03293413173652695,0.033932135728542916,0.02694610778443114,0.020958083832335328,0.03093812375249501,0.0,0.0,0.03592814371257485,0.028942115768463075,0.0,0.0,0.033932135728542916,0.03493013972055888,0.018962075848303395,0.03592814371257485,0.0,0.0,0.0,0.031936127744510975,0.03493013972055888,0.03592814371257485,0.029940119760479042,0.0,0.03592814371257485,0.003992015968063872,0.031936127744510975,0.03592814371257485,0.0,0.03493013972055888,0.027944111776447105,0.0
S11_D12 hbo,0.0,0.0,0.030844155844155844,0.0,0.030844155844155844,0.0,0.0,0.030844155844155844,0.021103896103896104,0.030844155844155844,0.030844155844155844,0.025974025974025976,0.030844155844155844,0.0,0.0,0.0,0.030844155844155844,0.030844155844155844,0.030844155844155844,0.030844155844155844,0.030844155844155844,0.030844155844155844,0.030844155844155844,0.030844155844155844,0.02922077922077922,0.030844155844155844,0.0,0.0,0.030844155844155844,0.030844155844155844,0.0,0.0,0.030844155844155844,0.030844155844155844,0.02922077922077922,0.030844155844155844,0.0,0.0,0.0,0.030844155844155844,0.030844155844155844,0.030844155844155844,0.030844155844155844,0.0,0.030844155844155844,0.0,0.030844155844155844,0.030844155844155844,0.0,0.030844155844155844,0.030844155844155844,0.0
S11_D13 hbo,0.0,0.0,0.028735632183908046,0.0,0.022030651340996167,0.0,0.0,0.02586206896551724,0.012452107279693486,0.03639846743295019,0.032567049808429116,0.01532567049808429,0.03735632183908046,0.0,0.0,0.0,0.029693486590038315,0.023946360153256706,0.029693486590038315,0.029693486590038315,0.028735632183908046,0.034482758620689655,0.033524904214559385,0.02586206896551724,0.020114942528735632,0.029693486590038315,0.0,0.0,0.039272030651340994,0.027777777777777776,0.0,0.0,0.033524904214559385,0.034482758620689655,0.018199233716475097,0.039272030651340994,0.0,0.0,0.0,0.03065134099616858,0.034482758620689655,0.039272030651340994,0.028735632183908046,0.0,0.03735632183908046,0.006704980842911878,0.033524904214559385,0.03735632183908046,0.0,0.03639846743295019,0.02681992337164751,0.0
S12_D10 hbo,0.0,0.0,0.0,0.0,0.0,0.0,0.0,0.0,0.0,0.0,0.0,0.0,0.0,0.0,0.0,0.0,0.0,0.0,0.0,0.0,0.0,0.0,0.0,0.0,0.0,0.0,0.0,0.0,0.0,0.0,0.0,0.0,0.0,0.0,0.0,0.0,0.0,0.0,0.0,0.0,0.0,0.0,0.0,0.0,0.0,0.0,0.0,0.0,0.0,0.0,0.0,0.0
S12_D12 hbo,0.0,0.0,0.0,0.0,0.0,0.0,0.0,0.0,0.0,0.0,0.0,0.0,0.0,0.0,0.0,0.0,0.0,0.0,0.0,0.0,0.0,0.0,0.0,0.0,0.0,0.0,0.0,0.0,0.0,0.0,0.0,0.0,0.0,0.0,0.0,0.0,0.0,0.0,0.0,0.0,0.0,0.0,0.0,0.0,0.0,0.0,0.0,0.0,0.0,0.0,0.0,0.0
S12_D14 hbo,0.0,0.0,0.0,0.0,0.0,0.0,0.0,0.0,0.0,0.0,0.0,0.0,0.0,0.0,0.0,0.0,0.0,0.0,0.0,0.0,0.0,0.0,0.0,0.0,0.0,0.0,0.0,0.0,0.0,0.0,0.0,0.0,0.0,0.0,0.0,0.0,0.0,0.0,0.0,0.0,0.0,0.0,0.0,0.0,0.0,0.0,0.0,0.0,0.0,0.0,0.0,0.0
S13_D6 hbo,0.0,0.0,0.029692470837751856,0.0,0.024390243902439025,0.0,0.0,0.02863202545068929,0.013785790031813362,0.033934252386002124,0.033934252386002124,0.016967126193001062,0.033934252386002124,0.0,0.0,0.0,0.032873806998939555,0.026511134676564158,0.032873806998939555,0.031813361611876985,0.029692470837751856,0.032873806998939555,0.033934252386002124,0.02863202545068929,0.022269353128313893,0.031813361611876985,0.0,0.0,0.033934252386002124,0.029692470837751856,0.0,0.0,0.033934252386002124,0.033934252386002124,0.02014846235418876,0.033934252386002124,0.0,0.0,0.0,0.032873806998939555,0.033934252386002124,0.033934252386002124,0.029692470837751856,0.0,0.033934252386002124,0.0021208907741251328,0.031813361611876985,0.033934252386002124,0.0,0.033934252386002124,0.029692470837751856,0.0
S13_D11 hbo,0.0,0.0,0.029940119760479042,0.0,0.022954091816367265,0.0,0.0,0.02694610778443114,0.012974051896207584,0.03592814371257485,0.033932135728542916,0.015968063872255488,0.03592814371257485,0.0,0.0,0.0,0.03093812375249501,0.0249500998003992,0.03093812375249501,0.03093812375249501,0.029940119760479042,0.03293413173652695,0.033932135728542916,0.02694610778443114,0.020958083832335328,0.03093812375249501,0.0,0.0,0.03592814371257485,0.028942115768463075,0.0,0.0,0.033932135728542916,0.03493013972055888,0.018962075848303395,0.03592814371257485,0.0,0.0,0.0,0.031936127744510975,0.03493013972055888,0.03592814371257485,0.029940119760479042,0.0,0.03592814371257485,0.003992015968063872,0.031936127744510975,0.03592814371257485,0.0,0.03493013972055888,0.027944111776447105,0.0
S13_D13 hbo,0.0,0.0,0.028985507246376812,0.0,0.022222222222222223,0.0,0.0,0.02608695652173913,0.012560386473429951,0.03671497584541063,0.03285024154589372,0.015458937198067632,0.03768115942028986,0.0,0.0,0.0,0.02995169082125604,0.024154589371980676,0.02995169082125604,0.02995169082125604,0.028985507246376812,0.033816425120772944,0.033816425120772944,0.02608695652173913,0.020289855072463767,0.02995169082125604,0.0,0.0,0.03864734299516908,0.028019323671497585,0.0,0.0,0.033816425120772944,0.034782608695652174,0.018357487922705314,0.03864734299516908,0.0,0.0,0.0,0.030917874396135265,0.034782608695652174,0.03864734299516908,0.028985507246376812,0.0,0.03671497584541063,0.005797101449275362,0.03285024154589372,0.03671497584541063,0.0,0.035748792270531404,0.02705314009661836,0.0
S13_D15 hbo,0.0,0.0,0.03165938864628821,0.0,0.025109170305676855,0.0,0.0,0.02947598253275109,0.014192139737991267,0.03275109170305677,0.03275109170305677,0.017467248908296942,0.03275109170305677,0.0,0.0,0.0,0.03165938864628821,0.027292576419213975,0.03165938864628821,0.03275109170305677,0.03165938864628821,0.03275109170305677,0.03275109170305677,0.02947598253275109,0.02292576419213974,0.03275109170305677,0.0,0.0,0.03275109170305677,0.03165938864628821,0.0,0.0,0.03275109170305677,0.03275109170305677,0.02074235807860262,0.03275109170305677,0.0,0.0,0.0,0.03275109170305677,0.03275109170305677,0.03275109170305677,0.03165938864628821,0.0,0.03275109170305677,0.0032751091703056767,0.03275109170305677,0.03275109170305677,0.0,0.03275109170305677,0.03056768558951965,0.0
S14_D12 hbo,0.0,0.0,0.0,0.0,0.0,0.0,0.0,0.0,0.0,0.0,0.0,0.0,0.0,0.0,0.0,0.0,0.0,0.0,0.0,0.0,0.0,0.0,0.0,0.0,0.0,0.0,0.0,0.0,0.0,0.0,0.0,0.0,0.0,0.0,0.0,0.0,0.0,0.0,0.0,0.0,0.0,0.0,0.0,0.0,0.0,0.0,0.0,0.0,0.0,0.0,0.0,0.0
S14_D13 hbo,0.0,0.0,0.028680688336520075,0.0,0.02198852772466539,0.0,0.0,0.02581261950286807,0.0124282982791587,0.036328871892925434,0.032504780114722756,0.015296367112810707,0.036328871892925434,0.0,0.0,0.0,0.029636711281070746,0.02390057361376673,0.029636711281070746,0.029636711281070746,0.028680688336520075,0.03441682600382409,0.033460803059273424,0.02581261950286807,0.020076481835564052,0.029636711281070746,0.0,0.0,0.03824091778202677,0.027724665391969407,0.0,0.0,0.033460803059273424,0.03441682600382409,0.018164435946462717,0.03919694072657744,0.0,0.0,0.0,0.030592734225621414,0.03441682600382409,0.03824091778202677,0.028680688336520075,0.0,0.03824091778202677,0.0076481835564053535,0.03441682600382409,0.03824091778202677,0.0,0.0372848948374761,0.02676864244741874,0.0
S14_D14 hbo,0.0,0.0,0.02976190476190476,0.0,0.0,0.0,0.0,0.005952380952380952,0.0,0.03571428571428571,0.02976190476190476,0.0,0.03571428571428571,0.0,0.0,0.0,0.017857142857142856,0.017857142857142856,0.017857142857142856,0.023809523809523808,0.02976190476190476,0.047619047619047616,0.03571428571428571,0.011904761904761904,0.0,0.023809523809523808,0.0,0.0,0.047619047619047616,0.023809523809523808,0.0,0.0,0.03571428571428571,0.03571428571428571,0.005952380952380952,0.05357142857142857,0.0,0.0,0.0,0.023809523809523808,0.03571428571428571,0.047619047619047616,0.02976190476190476,0.0,0.05952380952380952,0.05357142857142857,0.05357142857142857,0.05952380952380952,0.0,0.05357142857142857,0.017857142857142856,0.0
S14_D16 hbo,0.0,0.0,0.029850746268656716,0.0,0.022885572139303482,0.0,0.0,0.026865671641791045,0.012935323383084577,0.03383084577114428,0.03283582089552239,0.015920398009950248,0.03383084577114428,0.0,0.0,0.0,0.030845771144278607,0.024875621890547265,0.030845771144278607,0.030845771144278607,0.029850746268656716,0.03582089552238806,0.03383084577114428,0.026865671641791045,0.020895522388059702,0.030845771144278607,0.0,0.0,0.03582089552238806,0.028855721393034824,0.0,0.0,0.03383084577114428,0.03383084577114428,0.01890547263681592,0.03582089552238806,0.0,0.0,0.0,0.031840796019900496,0.03383084577114428,0.03582089552238806,0.029850746268656716,0.0,0.03582089552238806,0.006965174129353234,0.03482587064676617,0.03582089552238806,0.0,0.03582089552238806,0.027860696517412936,0.0
S15_D13 hbo,0.0,0.0,0.028680688336520075,0.0,0.02198852772466539,0.0,0.0,0.02581261950286807,0.0124282982791587,0.036328871892925434,0.032504780114722756,0.015296367112810707,0.036328871892925434,0.0,0.0,0.0,0.029636711281070746,0.02390057361376673,0.029636711281070746,0.029636711281070746,0.028680688336520075,0.03441682600382409,0.033460803059273424,0.02581261950286807,0.020076481835564052,0.029636711281070746,0.0,0.0,0.03824091778202677,0.027724665391969407,0.0,0.0,0.033460803059273424,0.03441682600382409,0.018164435946462717,0.03919694072657744,0.0,0.0,0.0,0.030592734225621414,0.03441682600382409,0.03824091778202677,0.028680688336520075,0.0,0.03824091778202677,0.0076481835564053535,0.03441682600382409,0.03824091778202677,0.0,0.0372848948374761,0.02676864244741874,0.0
S15_D15 hbo,0.0,0.0,0.0,0.0,0.0,0.0,0.0,0.0,0.0,0.0,0.0,0.0,0.0,0.0,0.0,0.0,0.0,0.0,0.0,0.0,0.0,0.0,0.0,0.0,0.0,0.0,0.0,0.0,0.0,0.0,0.0,0.0,0.0,0.0,0.0,0.0,0.0,0.0,0.0,0.0,0.0,0.0,0.0,0.0,0.0,0.0,0.0,0.0,0.0,0.0,0.0,0.0
S15_D16 hbo,0.0,0.0,0.028985507246376812,0.0,0.022222222222222223,0.0,0.0,0.02608695652173913,0.012560386473429951,0.035748792270531404,0.03285024154589372,0.015458937198067632,0.035748792270531404,0.0,0.0,0.0,0.02995169082125604,0.024154589371980676,0.02995169082125604,0.02995169082125604,0.028985507246376812,0.034782608695652174,0.033816425120772944,0.02608695652173913,0.020289855072463767,0.02995169082125604,0.0,0.0,0.03768115942028986,0.028019323671497585,0.0,0.0,0.033816425120772944,0.034782608695652174,0.018357487922705314,0.03768115942028986,0.0,0.0,0.0,0.030917874396135265,0.034782608695652174,0.03768115942028986,0.028985507246376812,0.0,0.03768115942028986,0.00676328502415459,0.033816425120772944,0.03768115942028986,0.0,0.03671497584541063,0.02705314009661836,0.0
S16_D14 hbo,0.0,0.0,0.03117782909930716,0.0,0.026558891454965358,0.0,0.0,0.03117782909930716,0.015011547344110854,0.03233256351039261,0.03233256351039261,0.018475750577367205,0.03233256351039261,0.0,0.0,0.0,0.03233256351039261,0.02771362586605081,0.03233256351039261,0.03233256351039261,0.03117782909930716,0.03233256351039261,0.03233256351039261,0.03117782909930716,0.02424942263279446,0.03233256351039261,0.0,0.0,0.03233256351039261,0.03117782909930716,0.0,0.0,0.03233256351039261,0.03233256351039261,0.021939953810623556,0.03233256351039261,0.0,0.0,0.0,0.03233256351039261,0.03233256351039261,0.03233256351039261,0.03117782909930716,0.0,0.03233256351039261,0.0011547344110854503,0.03233256351039261,0.03233256351039261,0.0,0.03233256351039261,0.03117782909930716,0.0
S16_D16 hbo,0.0,0.0,0.0,0.0,0.0,0.0,0.0,0.0,0.0,0.0,0.0,0.0,0.0,0.0,0.0,0.0,0.0,0.0,0.0,0.0,0.0,0.0,0.0,0.0,0.0,0.0,0.0,0.0,0.0,0.0,0.0,0.0,0.0,0.0,0.0,0.0,0.0,0.0,0.0,0.0,0.0,0.0,0.0,0.0,0.0,0.0,0.0,0.0,0.0,0.0,0.0,0.0
