,S1_D1 hbo,S1_D3 hbo,S2_D1 hbo,S2_D2 hbo,S2_D4 hbo,S3_D1 hbo,S3_D3 hbo,S3_D4 hbo,S3_D5 hbo,S4_D2 hbo,S4_D4 hbo,S4_D6 hbo,S4_D11 hbo,S5_D3 hbo,S5_D5 hbo,S5_D7 hbo,S6_D4 hbo,S6_D5 hbo,S6_D6 hbo,S6_D8 hbo,S7_D5 hbo,S7_D7 hbo,S7_D8 hbo,S8_D6 hbo,S8_D8 hbo,S8_D15 hbo,S9_D2 hbo,S9_D9 hbo,S9_D11 hbo,S10_D9 hbo,S10_D10 hbo,S10_D12 hbo,S11_D9 hbo,S11_D11 hbo,S11_D12 hbo,S11_D13 hbo,S12_D10 hbo,S12_D12 hbo,S12_D14 hbo,S13_D6 hbo,S13_D11 hbo,S13_D13 hbo,S13_D15 hbo,S14_D12 hbo,S14_D13 hbo,S14_D14 hbo,S14_D16 hbo,S15_D13 hbo,S15_D15 hbo,S15_D16 hbo,S16_D14 hbo,S16_D16 hbo
S1_D1 hbo,0.0,0.0,0.0,0.0,0.0,0.0,0.0,0.0,0.0,0.0,0.0,0.0,0.0,0.0,0.0,0.0,0.0,0.0,0.0,0.0,0.0,0.0,0.0,0.0,0.0,0.0,0.0,0.0,0.0,0.0,0.0,0.0,0.0,0.0,0.0,0.0,0.0,0.0,0.0,0.0,0.0,0.0,0.0,0.0,0.0,0.0,0.0,0.0,0.0,0.0,0.0,0.0
S1_D3 hbo,0.0,0.0,0.0,0.0,0.0,0.0,0.0,0.0,0.0,0.0,0.0,0.0,0.0,0.0,0.0,0.0,0.0,0.0,0.0,0.0,0.0,0.0,0.0,0.0,0.0,0.0,0.0,0.0,0.0,0.0,0.0,0.0,0.0,0.0,0.0,0.0,0.0,0.0,0.0,0.0,0.0,0.0,0.0,0.0,0.0,0.0,0.0,0.0,0.0,0.0,0.0,0.0
S2_D1 hbo,0.0,0.0,0.0,0.0,0.0,0.0,0.0,0.0,0.0,0.0,0.0,0.0,0.0,0.0,0.0,0.0,0.0,0.0,0.0,0.0,0.0,0.0,0.0,0.0,0.0,0.0,0.0,0.0,0.0,0.0,0.0,0.0,0.0,0.0,0.0,0.0,0.0,0.0,0.0,0.0,0.0,0.0,0.0,0.0,0.0,0.0,0.0,0.0,0.0,0.0,0.0,0.0
S2_D2 hbo,0.0,0.0,0.0,0.0,0.0,0.0,0.0,0.0,0.0,0.0,0.0,0.0,0.0,0.0,0.0,0.0,0.0,0.0,0.0,0.0,0.0,0.0,0.0,0.0,0.0,0.0,0.0,0.0,0.0,0.0,0.0,0.0,0.0,0.0,0.0,0.0,0.0,0.0,0.0,0.0,0.0,0.0,0.0,0.0,0.0,0.0,0.0,0.0,0.0,0.0,0.0,0.0
S2_D4 hbo,0.0,0.0,0.0,0.0,0.0,0.0,0.0,0.0,0.0,0.0,0.0,0.0,0.0,0.0,0.0,0.0,0.0,0.0,0.0,0.0,0.0,0.0,0.0,0.0,0.0,0.0,0.0,0.0,0.0,0.0,0.0,0.0,0.0,0.0,0.0,0.0,0.0,0.0,0.0,0.0,0.0,0.0,0.0,0.0,0.0,0.0,0.0,0.0,0.0,0.0,0.0,0.0
S3_D1 hbo,0.0,0.0,0.0,0.0,0.0,0.0,0.0,0.0,0.0,0.0,0.0,0.0,0.0,0.0,0.0,0.0,0.0,0.0,0.0,0.0,0.0,0.0,0.0,0.0,0.0,0.0,0.0,0.0,0.0,0.0,0.0,0.0,0.0,0.0,0.0,0.0,0.0,0.0,0.0,0.0,0.0,0.0,0.0,0.0,0.0,0.0,0.0,0.0,0.0,0.0,0.0,0.0
S3_D3 hbo,0.0,0.0,0.0,0.0,0.0,0.0,0.05714285714285714,0.0,0.047619047619047616,0.0,0.0,0.0,0.0,0.0,0.05714285714285714,0.0,0.009523809523809525,0.0,0.0,0.0,0.009523809523809525,0.0,0.0,0.0,0.0,0.0,0.0,0.0,0.0,0.0380952380952381,0.0,0.05714285714285714,0.01904761904761905,0.047619047619047616,0.06666666666666667,0.06666666666666667,0.0,0.0,0.02857142857142857,0.0,0.02857142857142857,0.009523809523809525,0.0380952380952381,0.06666666666666667,0.01904761904761905,0.06666666666666667,0.05714285714285714,0.047619047619047616,0.009523809523809525,0.06666666666666667,0.06666666666666667,0.01904761904761905
S3_D4 hbo,0.0,0.0,0.0,0.0,0.0,0.0,0.0,0.0,0.0,0.0,0.0,0.0,0.0,0.0,0.0,0.0,0.0,0.0,0.0,0.0,0.0,0.0,0.0,0.0,0.0,0.0,0.0,0.0,0.0,0.0,0.0,0.0,0.0,0.0,0.0,0.0,0.0,0.0,0.0,0.0,0.0,0.0,0.0,0.0,0.0,0.0,0.0,0.0,0.0,0.0,0.0,0.0
S3_D5 hbo,0.0,0.0,0.0,0.0,0.0,0.0,0.06060606060606061,0.0,0.050505050505050504,0.0,0.0,0.0,0.0,0.0,0.06060606060606061,0.0,0.010101010101010102,0.0,0.0,0.0,0.010101010101010102,0.0,0.0,0.0,0.0,0.0,0.0,0.0,0.0,0.04040404040404041,0.0,0.06060606060606061,0.020202020202020204,0.050505050505050504,0.06060606060606061,0.06060606060606061,0.0,0.0,0.030303030303030304,0.0,0.030303030303030304,0.010101010101010102,0.04040404040404041,0.06060606060606061,0.020202020202020204,0.06060606060606061,0.06060606060606061,0.050505050505050504,0.010101010101010102,0.06060606060606061,0.06060606060606061,0.020202020202020204
S4_D2 hbo,0.0,0.0,0.0,0.0,0.0,0.0,0.0,0.0,0.0,0.0,0.0,0.0,0.0,0.0,0.0,0.0,0.0,0.0,0.0,0.0,0.0,0.0,0.0,0.0,0.0,0.0,0.0,0.0,0.0,0.0,0.0,0.0,0.0,0.0,0.0,0.0,0.0,0.0,0.0,0.0,0.0,0.0,0.0,0.0,0.0,0.0,0.0,0.0,0.0,0.0,0.0,0.0
S4_D4 hbo,0.0,0.0,0.0,0.0,0.0,0.0,0.041666666666666664,0.0,0.041666666666666664,0.0,0.0,0.0,0.0,0.0,0.041666666666666664,0.0,0.041666666666666664,0.0,0.0,0.0,0.041666666666666664,0.0,0.0,0.0,0.0,0.0,0.0,0.0,0.0,0.041666666666666664,0.0,0.041666666666666664,0.041666666666666664,0.041666666666666664,0.041666666666666664,0.041666666666666664,0.0,0.0,0.041666666666666664,0.0,0.041666666666666664,0.041666666666666664,0.041666666666666664,0.041666666666666664,0.041666666666666664,0.041666666666666664,0.041666666666666664,0.041666666666666664,0.041666666666666664,0.041666666666666664,0.041666666666666664,0.041666666666666664
S4_D6 hbo,0.0,0.0,0.0,0.0,0.0,0.0,0.0,0.0,0.0,0.0,0.0,0.0,0.0,0.0,0.0,0.0,0.0,0.0,0.0,0.0,0.0,0.0,0.0,0.0,0.0,0.0,0.0,0.0,0.0,0.0,0.0,0.0,0.0,0.0,0.0,0.0,0.0,0.0,0.0,0.0,0.0,0.0,0.0,0.0,0.0,0.0,0.0,0.0,0.0,0.0,0.0,0.0
S4_D11 hbo,0.0,0.0,0.0,0.0,0.0,0.0,0.0,0.0,0.0,0.0,0.0,0.0,0.0,0.0,0.0,0.0,0.0,0.0,0.0,0.0,0.0,0.0,0.0,0.0,0.0,0.0,0.0,0.0,0.0,0.0,0.0,0.0,0.0,0.0,0.0,0.0,0.0,0.0,0.0,0.0,0.0,0.0,0.0,0.0,0.0,0.0,0.0,0.0,0.0,0.0,0.0,0.0
S5_D3 hbo,0.0,0.0,0.0,0.0,0.0,0.0,0.041666666666666664,0.0,0.041666666666666664,0.0,0.0,0.0,0.0,0.0,0.041666666666666664,0.0,0.041666666666666664,0.0,0.0,0.0,0.041666666666666664,0.0,0.0,0.0,0.0,0.0,0.0,0.0,0.0,0.041666666666666664,0.0,0.041666666666666664,0.041666666666666664,0.041666666666666664,0.041666666666666664,0.041666666666666664,0.0,0.0,0.041666666666666664,0.0,0.041666666666666664,0.041666666666666664,0.041666666666666664,0.041666666666666664,0.041666666666666664,0.041666666666666664,0.041666666666666664,0.041666666666666664,0.041666666666666664,0.041666666666666664,0.041666666666666664,0.041666666666666664
S5_D5 hbo,0.0,0.0,0.0,0.0,0.0,0.0,0.05714285714285714,0.0,0.047619047619047616,0.0,0.0,0.0,0.0,0.0,0.05714285714285714,0.0,0.009523809523809525,0.0,0.0,0.0,0.009523809523809525,0.0,0.0,0.0,0.0,0.0,0.0,0.0,0.0,0.0380952380952381,0.0,0.05714285714285714,0.01904761904761905,0.047619047619047616,0.06666666666666667,0.06666666666666667,0.0,0.0,0.02857142857142857,0.0,0.02857142857142857,0.009523809523809525,0.0380952380952381,0.06666666666666667,0.01904761904761905,0.06666666666666667,0.05714285714285714,0.047619047619047616,0.009523809523809525,0.06666666666666667,0.06666666666666667,0.01904761904761905
S5_D7 hbo,0.0,0.0,0.0,0.0,0.0,0.0,0.0,0.0,0.0,0.0,0.0,0.0,0.0,0.0,0.0,0.0,0.0,0.0,0.0,0.0,0.0,0.0,0.0,0.0,0.0,0.0,0.0,0.0,0.0,0.0,0.0,0.0,0.0,0.0,0.0,0.0,0.0,0.0,0.0,0.0,0.0,0.0,0.0,0.0,0.0,0.0,0.0,0.0,0.0,0.0,0.0,0.0
S6_D4 hbo,0.0,0.0,0.0,0.0,0.0,0.0,0.045454545454545456,0.0,0.045454545454545456,0.0,0.0,0.0,0.0,0.0,0.045454545454545456,0.0,0.022727272727272728,0.0,0.0,0.0,0.022727272727272728,0.0,0.0,0.0,0.0,0.0,0.0,0.0,0.0,0.045454545454545456,0.0,0.045454545454545456,0.045454545454545456,0.045454545454545456,0.045454545454545456,0.045454545454545456,0.0,0.0,0.045454545454545456,0.0,0.045454545454545456,0.022727272727272728,0.045454545454545456,0.045454545454545456,0.045454545454545456,0.045454545454545456,0.045454545454545456,0.045454545454545456,0.022727272727272728,0.045454545454545456,0.045454545454545456,0.045454545454545456
S6_D5 hbo,0.0,0.0,0.0,0.0,0.0,0.0,0.0,0.0,0.0,0.0,0.0,0.0,0.0,0.0,0.0,0.0,0.0,0.0,0.0,0.0,0.0,0.0,0.0,0.0,0.0,0.0,0.0,0.0,0.0,0.0,0.0,0.0,0.0,0.0,0.0,0.0,0.0,0.0,0.0,0.0,0.0,0.0,0.0,0.0,0.0,0.0,0.0,0.0,0.0,0.0,0.0,0.0
S6_D6 hbo,0.0,0.0,0.0,0.0,0.0,0.0,0.0,0.0,0.0,0.0,0.0,0.0,0.0,0.0,0.0,0.0,0.0,0.0,0.0,0.0,0.0,0.0,0.0,0.0,0.0,0.0,0.0,0.0,0.0,0.0,0.0,0.0,0.0,0.0,0.0,0.0,0.0,0.0,0.0,0.0,0.0,0.0,0.0,0.0,0.0,0.0,0.0,0.0,0.0,0.0,0.0,0.0
S6_D8 hbo,0.0,0.0,0.0,0.0,0.0,0.0,0.0,0.0,0.0,0.0,0.0,0.0,0.0,0.0,0.0,0.0,0.0,0.0,0.0,0.0,0.0,0.0,0.0,0.0,0.0,0.0,0.0,0.0,0.0,0.0,0.0,0.0,0.0,0.0,0.0,0.0,0.0,0.0,0.0,0.0,0.0,0.0,0.0,0.0,0.0,0.0,0.0,0.0,0.0,0.0,0.0,0.0
S7_D5 hbo,0.0,0.0,0.0,0.0,0.0,0.0,0.045454545454545456,0.0,0.045454545454545456,0.0,0.0,0.0,0.0,0.0,0.045454545454545456,0.0,0.022727272727272728,0.0,0.0,0.0,0.022727272727272728,0.0,0.0,0.0,0.0,0.0,0.0,0.0,0.0,0.045454545454545456,0.0,0.045454545454545456,0.045454545454545456,0.045454545454545456,0.045454545454545456,0.045454545454545456,0.0,0.0,0.045454545454545456,0.0,0.045454545454545456,0.022727272727272728,0.045454545454545456,0.045454545454545456,0.045454545454545456,0.045454545454545456,0.045454545454545456,0.045454545454545456,0.022727272727272728,0.045454545454545456,0.045454545454545456,0.045454545454545456
S7_D7 hbo,0.0,0.0,0.0,0.0,0.0,0.0,0.041666666666666664,0.0,0.041666666666666664,0.0,0.0,0.0,0.0,0.0,0.041666666666666664,0.0,0.041666666666666664,0.0,0.0,0.0,0.041666666666666664,0.0,0.0,0.0,0.0,0.0,0.0,0.0,0.0,0.041666666666666664,0.0,0.041666666666666664,0.041666666666666664,0.041666666666666664,0.041666666666666664,0.041666666666666664,0.0,0.0,0.041666666666666664,0.0,0.041666666666666664,0.041666666666666664,0.041666666666666664,0.041666666666666664,0.041666666666666664,0.041666666666666664,0.041666666666666664,0.041666666666666664,0.041666666666666664,0.041666666666666664,0.041666666666666664,0.041666666666666664
S7_D8 hbo,0.0,0.0,0.0,0.0,0.0,0.0,0.0,0.0,0.0,0.0,0.0,0.0,0.0,0.0,0.0,0.0,0.0,0.0,0.0,0.0,0.0,0.0,0.0,0.0,0.0,0.0,0.0,0.0,0.0,0.0,0.0,0.0,0.0,0.0,0.0,0.0,0.0,0.0,0.0,0.0,0.0,0.0,0.0,0.0,0.0,0.0,0.0,0.0,0.0,0.0,0.0,0.0
S8_D6 hbo,0.0,0.0,0.0,0.0,0.0,0.0,0.0,0.0,0.0,0.0,0.0,0.0,0.0,0.0,0.0,0.0,0.0,0.0,0.0,0.0,0.0,0.0,0.0,0.0,0.0,0.0,0.0,0.0,0.0,0.0,0.0,0.0,0.0,0.0,0.0,0.0,0.0,0.0,0.0,0.0,0.0,0.0,0.0,0.0,0.0,0.0,0.0,0.0,0.0,0.0,0.0,0.0
S8_D8 hbo,0.0,0.0,0.0,0.0,0.0,0.0,0.0,0.0,0.0,0.0,0.0,0.0,0.0,0.0,0.0,0.0,0.0,0.0,0.0,0.0,0.0,0.0,0.0,0.0,0.0,0.0,0.0,0.0,0.0,0.0,0.0,0.0,0.0,0.0,0.0,0.0,0.0,0.0,0.0,0.0,0.0,0.0,0.0,0.0,0.0,0.0,0.0,0.0,0.0,0.0,0.0,0.0
S8_D15 hbo,0.0,0.0,0.0,0.0,0.0,0.0,0.0,0.0,0.0,0.0,0.0,0.0,0.0,0.0,0.0,0.0,0.0,0.0,0.0,0.0,0.0,0.0,0.0,0.0,0.0,0.0,0.0,0.0,0.0,0.0,0.0,0.0,0.0,0.0,0.0,0.0,0.0,0.0,0.0,0.0,0.0,0.0,0.0,0.0,0.0,0.0,0.0,0.0,0.0,0.0,0.0,0.0
S9_D2 hbo,0.0,0.0,0.0,0.0,0.0,0.0,0.0,0.0,0.0,0.0,0.0,0.0,0.0,0.0,0.0,0.0,0.0,0.0,0.0,0.0,0.0,0.0,0.0,0.0,0.0,0.0,0.0,0.0,0.0,0.0,0.0,0.0,0.0,0.0,0.0,0.0,0.0,0.0,0.0,0.0,0.0,0.0,0.0,0.0,0.0,0.0,0.0,0.0,0.0,0.0,0.0,0.0
S9_D9 hbo,0.0,0.0,0.0,0.0,0.0,0.0,0.0,0.0,0.0,0.0,0.0,0.0,0.0,0.0,0.0,0.0,0.0,0.0,0.0,0.0,0.0,0.0,0.0,0.0,0.0,0.0,0.0,0.0,0.0,0.0,0.0,0.0,0.0,0.0,0.0,0.0,0.0,0.0,0.0,0.0,0.0,0.0,0.0,0.0,0.0,0.0,0.0,0.0,0.0,0.0,0.0,0.0
S9_D11 hbo,0.0,0.0,0.0,0.0,0.0,0.0,0.0,0.0,0.0,0.0,0.0,0.0,0.0,0.0,0.0,0.0,0.0,0.0,0.0,0.0,0.0,0.0,0.0,0.0,0.0,0.0,0.0,0.0,0.0,0.0,0.0,0.0,0.0,0.0,0.0,0.0,0.0,0.0,0.0,0.0,0.0,0.0,0.0,0.0,0.0,0.0,0.0,0.0,0.0,0.0,0.0,0.0
S10_D9 hbo,0.0,0.0,0.0,0.0,0.0,0.0,0.056179775280898875,0.0,0.056179775280898875,0.0,0.0,0.0,0.0,0.0,0.056179775280898875,0.0,0.011235955056179775,0.0,0.0,0.0,0.011235955056179775,0.0,0.0,0.0,0.0,0.0,0.0,0.0,0.0,0.0449438202247191,0.0,0.056179775280898875,0.02247191011235955,0.056179775280898875,0.056179775280898875,0.056179775280898875,0.0,0.0,0.033707865168539325,0.0,0.033707865168539325,0.011235955056179775,0.0449438202247191,0.056179775280898875,0.02247191011235955,0.056179775280898875,0.056179775280898875,0.056179775280898875,0.011235955056179775,0.056179775280898875,0.056179775280898875,0.02247191011235955
S10_D10 hbo,0.0,0.0,0.0,0.0,0.0,0.0,0.0,0.0,0.0,0.0,0.0,0.0,0.0,0.0,0.0,0.0,0.0,0.0,0.0,0.0,0.0,0.0,0.0,0.0,0.0,0.0,0.0,0.0,0.0,0.0,0.0,0.0,0.0,0.0,0.0,0.0,0.0,0.0,0.0,0.0,0.0,0.0,0.0,0.0,0.0,0.0,0.0,0.0,0.0,0.0,0.0,0.0
S10_D12 hbo,0.0,0.0,0.0,0.0,0.0,0.0,0.05714285714285714,0.0,0.047619047619047616,0.0,0.0,0.0,0.0,0.0,0.05714285714285714,0.0,0.009523809523809525,0.0,0.0,0.0,0.009523809523809525,0.0,0.0,0.0,0.0,0.0,0.0,0.0,0.0,0.0380952380952381,0.0,0.05714285714285714,0.01904761904761905,0.047619047619047616,0.06666666666666667,0.06666666666666667,0.0,0.0,0.02857142857142857,0.0,0.02857142857142857,0.009523809523809525,0.0380952380952381,0.06666666666666667,0.01904761904761905,0.06666666666666667,0.05714285714285714,0.047619047619047616,0.009523809523809525,0.06666666666666667,0.06666666666666667,0.01904761904761905
S11_D9 hbo,0.0,0.0,0.0,0.0,0.0,0.0,0.04918032786885246,0.0,0.04918032786885246,0.0,0.0,0.0,0.0,0.0,0.04918032786885246,0.0,0.01639344262295082,0.0,0.0,0.0,0.01639344262295082,0.0,0.0,0.0,0.0,0.0,0.0,0.0,0.0,0.04918032786885246,0.0,0.04918032786885246,0.03278688524590164,0.04918032786885246,0.04918032786885246,0.04918032786885246,0.0,0.0,0.04918032786885246,0.0,0.04918032786885246,0.01639344262295082,0.04918032786885246,0.04918032786885246,0.03278688524590164,0.04918032786885246,0.04918032786885246,0.04918032786885246,0.01639344262295082,0.04918032786885246,0.04918032786885246,0.03278688524590164
S11_D11 hbo,0.0,0.0,0.0,0.0,0.0,0.0,0.06060606060606061,0.0,0.050505050505050504,0.0,0.0,0.0,0.0,0.0,0.06060606060606061,0.0,0.010101010101010102,0.0,0.0,0.0,0.010101010101010102,0.0,0.0,0.0,0.0,0.0,0.0,0.0,0.0,0.04040404040404041,0.0,0.06060606060606061,0.020202020202020204,0.050505050505050504,0.06060606060606061,0.06060606060606061,0.0,0.0,0.030303030303030304,0.0,0.030303030303030304,0.010101010101010102,0.04040404040404041,0.06060606060606061,0.020202020202020204,0.06060606060606061,0.06060606060606061,0.050505050505050504,0.010101010101010102,0.06060606060606061,0.06060606060606061,0.020202020202020204
S11_D12 hbo,0.0,0.0,0.0,0.0,0.0,0.0,0.05357142857142857,0.0,0.044642857142857144,0.0,0.0,0.0,0.0,0.0,0.05357142857142857,0.0,0.008928571428571428,0.0,0.0,0.0,0.008928571428571428,0.0,0.0,0.0,0.0,0.0,0.0,0.0,0.0,0.03571428571428571,0.0,0.05357142857142857,0.017857142857142856,0.044642857142857144,0.07142857142857142,0.07142857142857142,0.0,0.0,0.026785714285714284,0.0,0.026785714285714284,0.008928571428571428,0.03571428571428571,0.0625,0.017857142857142856,0.08035714285714286,0.05357142857142857,0.044642857142857144,0.008928571428571428,0.07142857142857142,0.08035714285714286,0.017857142857142856
S11_D13 hbo,0.0,0.0,0.0,0.0,0.0,0.0,0.05357142857142857,0.0,0.044642857142857144,0.0,0.0,0.0,0.0,0.0,0.05357142857142857,0.0,0.008928571428571428,0.0,0.0,0.0,0.008928571428571428,0.0,0.0,0.0,0.0,0.0,0.0,0.0,0.0,0.03571428571428571,0.0,0.05357142857142857,0.017857142857142856,0.044642857142857144,0.07142857142857142,0.07142857142857142,0.0,0.0,0.026785714285714284,0.0,0.026785714285714284,0.008928571428571428,0.03571428571428571,0.0625,0.017857142857142856,0.08035714285714286,0.05357142857142857,0.044642857142857144,0.008928571428571428,0.07142857142857142,0.08035714285714286,0.017857142857142856
S12_D10 hbo,0.0,0.0,0.0,0.0,0.0,0.0,0.0,0.0,0.0,0.0,0.0,0.0,0.0,0.0,0.0,0.0,0.0,0.0,0.0,0.0,0.0,0.0,0.0,0.0,0.0,0.0,0.0,0.0,0.0,0.0,0.0,0.0,0.0,0.0,0.0,0.0,0.0,0.0,0.0,0.0,0.0,0.0,0.0,0.0,0.0,0.0,0.0,0.0,0.0,0.0,0.0,0.0
S12_D12 hbo,0.0,0.0,0.0,0.0,0.0,0.0,0.0,0.0,0.0,0.0,0.0,0.0,0.0,0.0,0.0,0.0,0.0,0.0,0.0,0.0,0.0,0.0,0.0,0.0,0.0,0.0,0.0,0.0,0.0,0.0,0.0,0.0,0.0,0.0,0.0,0.0,0.0,0.0,0.0,0.0,0.0,0.0,0.0,0.0,0.0,0.0,0.0,0.0,0.0,0.0,0.0,0.0
S12_D14 hbo,0.0,0.0,0.0,0.0,0.0,0.0,0.05263157894736842,0.0,0.05263157894736842,0.0,0.0,0.0,0.0,0.0,0.05263157894736842,0.0,0.013157894736842105,0.0,0.0,0.0,0.013157894736842105,0.0,0.0,0.0,0.0,0.0,0.0,0.0,0.0,0.05263157894736842,0.0,0.05263157894736842,0.02631578947368421,0.05263157894736842,0.05263157894736842,0.05263157894736842,0.0,0.0,0.039473684210526314,0.0,0.039473684210526314,0.013157894736842105,0.05263157894736842,0.05263157894736842,0.02631578947368421,0.05263157894736842,0.05263157894736842,0.05263157894736842,0.013157894736842105,0.05263157894736842,0.05263157894736842,0.02631578947368421
S13_D6 hbo,0.0,0.0,0.0,0.0,0.0,0.0,0.0,0.0,0.0,0.0,0.0,0.0,0.0,0.0,0.0,0.0,0.0,0.0,0.0,0.0,0.0,0.0,0.0,0.0,0.0,0.0,0.0,0.0,0.0,0.0,0.0,0.0,0.0,0.0,0.0,0.0,0.0,0.0,0.0,0.0,0.0,0.0,0.0,0.0,0.0,0.0,0.0,0.0,0.0,0.0,0.0,0.0
S13_D11 hbo,0.0,0.0,0.0,0.0,0.0,0.0,0.05263157894736842,0.0,0.05263157894736842,0.0,0.0,0.0,0.0,0.0,0.05263157894736842,0.0,0.013157894736842105,0.0,0.0,0.0,0.013157894736842105,0.0,0.0,0.0,0.0,0.0,0.0,0.0,0.0,0.05263157894736842,0.0,0.05263157894736842,0.02631578947368421,0.05263157894736842,0.05263157894736842,0.05263157894736842,0.0,0.0,0.039473684210526314,0.0,0.039473684210526314,0.013157894736842105,0.05263157894736842,0.05263157894736842,0.02631578947368421,0.05263157894736842,0.05263157894736842,0.05263157894736842,0.013157894736842105,0.05263157894736842,0.05263157894736842,0.02631578947368421
S13_D13 hbo,0.0,0.0,0.0,0.0,0.0,0.0,0.045454545454545456,0.0,0.045454545454545456,0.0,0.0,0.0,0.0,0.0,0.045454545454545456,0.0,0.022727272727272728,0.0,0.0,0.0,0.022727272727272728,0.0,0.0,0.0,0.0,0.0,0.0,0.0,0.0,0.045454545454545456,0.0,0.045454545454545456,0.045454545454545456,0.045454545454545456,0.045454545454545456,0.045454545454545456,0.0,0.0,0.045454545454545456,0.0,0.045454545454545456,0.022727272727272728,0.045454545454545456,0.045454545454545456,0.045454545454545456,0.045454545454545456,0.045454545454545456,0.045454545454545456,0.022727272727272728,0.045454545454545456,0.045454545454545456,0.045454545454545456
S13_D15 hbo,0.0,0.0,0.0,0.0,0.0,0.0,0.056179775280898875,0.0,0.056179775280898875,0.0,0.0,0.0,0.0,0.0,0.056179775280898875,0.0,0.011235955056179775,0.0,0.0,0.0,0.011235955056179775,0.0,0.0,0.0,0.0,0.0,0.0,0.0,0.0,0.0449438202247191,0.0,0.056179775280898875,0.02247191011235955,0.056179775280898875,0.056179775280898875,0.056179775280898875,0.0,0.0,0.033707865168539325,0.0,0.033707865168539325,0.011235955056179775,0.0449438202247191,0.056179775280898875,0.02247191011235955,0.056179775280898875,0.056179775280898875,0.056179775280898875,0.011235955056179775,0.056179775280898875,0.056179775280898875,0.02247191011235955
S14_D12 hbo,0.0,0.0,0.0,0.0,0.0,0.0,0.05454545454545454,0.0,0.045454545454545456,0.0,0.0,0.0,0.0,0.0,0.05454545454545454,0.0,0.00909090909090909,0.0,0.0,0.0,0.00909090909090909,0.0,0.0,0.0,0.0,0.0,0.0,0.0,0.0,0.03636363636363636,0.0,0.05454545454545454,0.01818181818181818,0.045454545454545456,0.07272727272727272,0.07272727272727272,0.0,0.0,0.02727272727272727,0.0,0.02727272727272727,0.00909090909090909,0.03636363636363636,0.06363636363636363,0.01818181818181818,0.07272727272727272,0.05454545454545454,0.045454545454545456,0.00909090909090909,0.07272727272727272,0.07272727272727272,0.01818181818181818
S14_D13 hbo,0.0,0.0,0.0,0.0,0.0,0.0,0.04918032786885246,0.0,0.04918032786885246,0.0,0.0,0.0,0.0,0.0,0.04918032786885246,0.0,0.01639344262295082,0.0,0.0,0.0,0.01639344262295082,0.0,0.0,0.0,0.0,0.0,0.0,0.0,0.0,0.04918032786885246,0.0,0.04918032786885246,0.03278688524590164,0.04918032786885246,0.04918032786885246,0.04918032786885246,0.0,0.0,0.04918032786885246,0.0,0.04918032786885246,0.01639344262295082,0.04918032786885246,0.04918032786885246,0.03278688524590164,0.04918032786885246,0.04918032786885246,0.04918032786885246,0.01639344262295082,0.04918032786885246,0.04918032786885246,0.03278688524590164
S14_D14 hbo,0.0,0.0,0.0,0.0,0.0,0.0,0.05172413793103448,0.0,0.04310344827586207,0.0,0.0,0.0,0.0,0.0,0.05172413793103448,0.0,0.008620689655172414,0.0,0.0,0.0,0.008620689655172414,0.0,0.0,0.0,0.0,0.0,0.0,0.0,0.0,0.034482758620689655,0.0,0.05172413793103448,0.017241379310344827,0.04310344827586207,0.06896551724137931,0.06896551724137931,0.0,0.0,0.02586206896551724,0.0,0.02586206896551724,0.008620689655172414,0.034482758620689655,0.0603448275862069,0.017241379310344827,0.09482758620689655,0.05172413793103448,0.04310344827586207,0.008620689655172414,0.06896551724137931,0.09482758620689655,0.017241379310344827
S14_D16 hbo,0.0,0.0,0.0,0.0,0.0,0.0,0.05714285714285714,0.0,0.047619047619047616,0.0,0.0,0.0,0.0,0.0,0.05714285714285714,0.0,0.009523809523809525,0.0,0.0,0.0,0.009523809523809525,0.0,0.0,0.0,0.0,0.0,0.0,0.0,0.0,0.0380952380952381,0.0,0.05714285714285714,0.01904761904761905,0.047619047619047616,0.06666666666666667,0.06666666666666667,0.0,0.0,0.02857142857142857,0.0,0.02857142857142857,0.009523809523809525,0.0380952380952381,0.06666666666666667,0.01904761904761905,0.06666666666666667,0.05714285714285714,0.047619047619047616,0.009523809523809525,0.06666666666666667,0.06666666666666667,0.01904761904761905
S15_D13 hbo,0.0,0.0,0.0,0.0,0.0,0.0,0.06060606060606061,0.0,0.050505050505050504,0.0,0.0,0.0,0.0,0.0,0.06060606060606061,0.0,0.010101010101010102,0.0,0.0,0.0,0.010101010101010102,0.0,0.0,0.0,0.0,0.0,0.0,0.0,0.0,0.04040404040404041,0.0,0.06060606060606061,0.020202020202020204,0.050505050505050504,0.06060606060606061,0.06060606060606061,0.0,0.0,0.030303030303030304,0.0,0.030303030303030304,0.010101010101010102,0.04040404040404041,0.06060606060606061,0.020202020202020204,0.06060606060606061,0.06060606060606061,0.050505050505050504,0.010101010101010102,0.06060606060606061,0.06060606060606061,0.020202020202020204
S15_D15 hbo,0.0,0.0,0.0,0.0,0.0,0.0,0.045454545454545456,0.0,0.045454545454545456,0.0,0.0,0.0,0.0,0.0,0.045454545454545456,0.0,0.022727272727272728,0.0,0.0,0.0,0.022727272727272728,0.0,0.0,0.0,0.0,0.0,0.0,0.0,0.0,0.045454545454545456,0.0,0.045454545454545456,0.045454545454545456,0.045454545454545456,0.045454545454545456,0.045454545454545456,0.0,0.0,0.045454545454545456,0.0,0.045454545454545456,0.022727272727272728,0.045454545454545456,0.045454545454545456,0.045454545454545456,0.045454545454545456,0.045454545454545456,0.045454545454545456,0.022727272727272728,0.045454545454545456,0.045454545454545456,0.045454545454545456
S15_D16 hbo,0.0,0.0,0.0,0.0,0.0,0.0,0.05357142857142857,0.0,0.044642857142857144,0.0,0.0,0.0,0.0,0.0,0.05357142857142857,0.0,0.008928571428571428,0.0,0.0,0.0,0.008928571428571428,0.0,0.0,0.0,0.0,0.0,0.0,0.0,0.0,0.03571428571428571,0.0,0.05357142857142857,0.017857142857142856,0.044642857142857144,0.07142857142857142,0.07142857142857142,0.0,0.0,0.026785714285714284,0.0,0.026785714285714284,0.008928571428571428,0.03571428571428571,0.0625,0.017857142857142856,0.08035714285714286,0.05357142857142857,0.044642857142857144,0.008928571428571428,0.07142857142857142,0.08035714285714286,0.017857142857142856
S16_D14 hbo,0.0,0.0,0.0,0.0,0.0,0.0,0.05172413793103448,0.0,0.04310344827586207,0.0,0.0,0.0,0.0,0.0,0.05172413793103448,0.0,0.008620689655172414,0.0,0.0,0.0,0.008620689655172414,0.0,0.0,0.0,0.0,0.0,0.0,0.0,0.0,0.034482758620689655,0.0,0.05172413793103448,0.017241379310344827,0.04310344827586207,0.06896551724137931,0.06896551724137931,0.0,0.0,0.02586206896551724,0.0,0.02586206896551724,0.008620689655172414,0.034482758620689655,0.0603448275862069,0.017241379310344827,0.09482758620689655,0.05172413793103448,0.04310344827586207,0.008620689655172414,0.06896551724137931,0.09482758620689655,0.017241379310344827
S16_D16 hbo,0.0,0.0,0.0,0.0,0.0,0.0,0.04918032786885246,0.0,0.04918032786885246,0.0,0.0,0.0,0.0,0.0,0.04918032786885246,0.0,0.01639344262295082,0.0,0.0,0.0,0.01639344262295082,0.0,0.0,0.0,0.0,0.0,0.0,0.0,0.0,0.04918032786885246,0.0,0.04918032786885246,0.03278688524590164,0.04918032786885246,0.04918032786885246,0.04918032786885246,0.0,0.0,0.04918032786885246,0.0,0.04918032786885246,0.01639344262295082,0.04918032786885246,0.04918032786885246,0.03278688524590164,0.04918032786885246,0.04918032786885246,0.04918032786885246,0.01639344262295082,0.04918032786885246,0.04918032786885246,0.03278688524590164
