,S1_D1 hbo,S1_D3 hbo,S2_D1 hbo,S2_D2 hbo,S2_D4 hbo,S3_D1 hbo,S3_D3 hbo,S3_D4 hbo,S3_D5 hbo,S4_D2 hbo,S4_D4 hbo,S4_D6 hbo,S4_D11 hbo,S5_D3 hbo,S5_D5 hbo,S5_D7 hbo,S6_D4 hbo,S6_D5 hbo,S6_D6 hbo,S6_D8 hbo,S7_D5 hbo,S7_D7 hbo,S7_D8 hbo,S8_D6 hbo,S8_D8 hbo,S8_D15 hbo,S9_D2 hbo,S9_D9 hbo,S9_D11 hbo,S10_D9 hbo,S10_D10 hbo,S10_D12 hbo,S11_D9 hbo,S11_D11 hbo,S11_D12 hbo,S11_D13 hbo,S12_D10 hbo,S12_D12 hbo,S12_D14 hbo,S13_D6 hbo,S13_D11 hbo,S13_D13 hbo,S13_D15 hbo,S14_D12 hbo,S14_D13 hbo,S14_D14 hbo,S14_D16 hbo,S15_D13 hbo,S15_D15 hbo,S15_D16 hbo,S16_D14 hbo,S16_D16 hbo
S1_D1 hbo,0.036036036036036036,0.0,0.009009009009009009,0.009009009009009009,0.009009009009009009,0.0,0.0,0.009009009009009009,0.036036036036036036,0.009009009009009009,0.02702702702702703,0.018018018018018018,0.02702702702702703,0.0,0.036036036036036036,0.0,0.0,0.018018018018018018,0.04504504504504504,0.0,0.036036036036036036,0.02702702702702703,0.04504504504504504,0.04504504504504504,0.04504504504504504,0.04504504504504504,0.036036036036036036,0.04504504504504504,0.04504504504504504,0.036036036036036036,0.0,0.009009009009009009,0.018018018018018018,0.0,0.036036036036036036,0.0,0.0,0.0,0.018018018018018018,0.018018018018018018,0.04504504504504504,0.0,0.0,0.036036036036036036,0.036036036036036036,0.018018018018018018,0.02702702702702703,0.018018018018018018,0.0,0.009009009009009009,0.018018018018018018,0.0
S1_D3 hbo,0.0,0.0,0.0,0.0,0.0,0.0,0.0,0.0,0.0,0.0,0.0,0.0,0.0,0.0,0.0,0.0,0.0,0.0,0.0,0.0,0.0,0.0,0.0,0.0,0.0,0.0,0.0,0.0,0.0,0.0,0.0,0.0,0.0,0.0,0.0,0.0,0.0,0.0,0.0,0.0,0.0,0.0,0.0,0.0,0.0,0.0,0.0,0.0,0.0,0.0,0.0,0.0
S2_D1 hbo,0.03076923076923077,0.0,0.015384615384615385,0.015384615384615385,0.015384615384615385,0.0,0.0,0.015384615384615385,0.03076923076923077,0.015384615384615385,0.03076923076923077,0.03076923076923077,0.03076923076923077,0.0,0.03076923076923077,0.0,0.0,0.03076923076923077,0.03076923076923077,0.0,0.03076923076923077,0.03076923076923077,0.03076923076923077,0.03076923076923077,0.03076923076923077,0.03076923076923077,0.03076923076923077,0.03076923076923077,0.03076923076923077,0.03076923076923077,0.0,0.015384615384615385,0.03076923076923077,0.0,0.03076923076923077,0.0,0.0,0.0,0.03076923076923077,0.03076923076923077,0.03076923076923077,0.0,0.0,0.03076923076923077,0.03076923076923077,0.03076923076923077,0.03076923076923077,0.03076923076923077,0.0,0.015384615384615385,0.03076923076923077,0.0
S2_D2 hbo,0.03076923076923077,0.0,0.015384615384615385,0.015384615384615385,0.015384615384615385,0.0,0.0,0.015384615384615385,0.03076923076923077,0.015384615384615385,0.03076923076923077,0.03076923076923077,0.03076923076923077,0.0,0.03076923076923077,0.0,0.0,0.03076923076923077,0.03076923076923077,0.0,0.03076923076923077,0.03076923076923077,0.03076923076923077,0.03076923076923077,0.03076923076923077,0.03076923076923077,0.03076923076923077,0.03076923076923077,0.03076923076923077,0.03076923076923077,0.0,0.015384615384615385,0.03076923076923077,0.0,0.03076923076923077,0.0,0.0,0.0,0.03076923076923077,0.03076923076923077,0.03076923076923077,0.0,0.0,0.03076923076923077,0.03076923076923077,0.03076923076923077,0.03076923076923077,0.03076923076923077,0.0,0.015384615384615385,0.03076923076923077,0.0
S2_D4 hbo,0.03076923076923077,0.0,0.015384615384615385,0.015384615384615385,0.015384615384615385,0.0,0.0,0.015384615384615385,0.03076923076923077,0.015384615384615385,0.03076923076923077,0.03076923076923077,0.03076923076923077,0.0,0.03076923076923077,0.0,0.0,0.03076923076923077,0.03076923076923077,0.0,0.03076923076923077,0.03076923076923077,0.03076923076923077,0.03076923076923077,0.03076923076923077,0.03076923076923077,0.03076923076923077,0.03076923076923077,0.03076923076923077,0.03076923076923077,0.0,0.015384615384615385,0.03076923076923077,0.0,0.03076923076923077,0.0,0.0,0.0,0.03076923076923077,0.03076923076923077,0.03076923076923077,0.0,0.0,0.03076923076923077,0.03076923076923077,0.03076923076923077,0.03076923076923077,0.03076923076923077,0.0,0.015384615384615385,0.03076923076923077,0.0
S3_D1 hbo,0.0,0.0,0.0,0.0,0.0,0.0,0.0,0.0,0.0,0.0,0.0,0.0,0.0,0.0,0.0,0.0,0.0,0.0,0.0,0.0,0.0,0.0,0.0,0.0,0.0,0.0,0.0,0.0,0.0,0.0,0.0,0.0,0.0,0.0,0.0,0.0,0.0,0.0,0.0,0.0,0.0,0.0,0.0,0.0,0.0,0.0,0.0,0.0,0.0,0.0,0.0,0.0
S3_D3 hbo,0.027777777777777776,0.0,0.027777777777777776,0.027777777777777776,0.027777777777777776,0.0,0.0,0.027777777777777776,0.027777777777777776,0.027777777777777776,0.027777777777777776,0.027777777777777776,0.027777777777777776,0.0,0.027777777777777776,0.0,0.0,0.027777777777777776,0.027777777777777776,0.0,0.027777777777777776,0.027777777777777776,0.027777777777777776,0.027777777777777776,0.027777777777777776,0.027777777777777776,0.027777777777777776,0.027777777777777776,0.027777777777777776,0.027777777777777776,0.0,0.027777777777777776,0.027777777777777776,0.0,0.027777777777777776,0.0,0.0,0.0,0.027777777777777776,0.027777777777777776,0.027777777777777776,0.0,0.0,0.027777777777777776,0.027777777777777776,0.027777777777777776,0.027777777777777776,0.027777777777777776,0.0,0.027777777777777776,0.027777777777777776,0.0
S3_D4 hbo,0.03076923076923077,0.0,0.015384615384615385,0.015384615384615385,0.015384615384615385,0.0,0.0,0.015384615384615385,0.03076923076923077,0.015384615384615385,0.03076923076923077,0.03076923076923077,0.03076923076923077,0.0,0.03076923076923077,0.0,0.0,0.03076923076923077,0.03076923076923077,0.0,0.03076923076923077,0.03076923076923077,0.03076923076923077,0.03076923076923077,0.03076923076923077,0.03076923076923077,0.03076923076923077,0.03076923076923077,0.03076923076923077,0.03076923076923077,0.0,0.015384615384615385,0.03076923076923077,0.0,0.03076923076923077,0.0,0.0,0.0,0.03076923076923077,0.03076923076923077,0.03076923076923077,0.0,0.0,0.03076923076923077,0.03076923076923077,0.03076923076923077,0.03076923076923077,0.03076923076923077,0.0,0.015384615384615385,0.03076923076923077,0.0
S3_D5 hbo,0.036036036036036036,0.0,0.009009009009009009,0.009009009009009009,0.009009009009009009,0.0,0.0,0.009009009009009009,0.036036036036036036,0.009009009009009009,0.02702702702702703,0.018018018018018018,0.02702702702702703,0.0,0.036036036036036036,0.0,0.0,0.018018018018018018,0.04504504504504504,0.0,0.036036036036036036,0.02702702702702703,0.04504504504504504,0.04504504504504504,0.04504504504504504,0.04504504504504504,0.036036036036036036,0.04504504504504504,0.04504504504504504,0.036036036036036036,0.0,0.009009009009009009,0.018018018018018018,0.0,0.036036036036036036,0.0,0.0,0.0,0.018018018018018018,0.018018018018018018,0.04504504504504504,0.0,0.0,0.036036036036036036,0.036036036036036036,0.018018018018018018,0.02702702702702703,0.018018018018018018,0.0,0.009009009009009009,0.018018018018018018,0.0
S4_D2 hbo,0.03076923076923077,0.0,0.015384615384615385,0.015384615384615385,0.015384615384615385,0.0,0.0,0.015384615384615385,0.03076923076923077,0.015384615384615385,0.03076923076923077,0.03076923076923077,0.03076923076923077,0.0,0.03076923076923077,0.0,0.0,0.03076923076923077,0.03076923076923077,0.0,0.03076923076923077,0.03076923076923077,0.03076923076923077,0.03076923076923077,0.03076923076923077,0.03076923076923077,0.03076923076923077,0.03076923076923077,0.03076923076923077,0.03076923076923077,0.0,0.015384615384615385,0.03076923076923077,0.0,0.03076923076923077,0.0,0.0,0.0,0.03076923076923077,0.03076923076923077,0.03076923076923077,0.0,0.0,0.03076923076923077,0.03076923076923077,0.03076923076923077,0.03076923076923077,0.03076923076923077,0.0,0.015384615384615385,0.03076923076923077,0.0
S4_D4 hbo,0.038834951456310676,0.0,0.009708737864077669,0.009708737864077669,0.009708737864077669,0.0,0.0,0.009708737864077669,0.038834951456310676,0.009708737864077669,0.02912621359223301,0.019417475728155338,0.02912621359223301,0.0,0.038834951456310676,0.0,0.0,0.019417475728155338,0.038834951456310676,0.0,0.038834951456310676,0.02912621359223301,0.038834951456310676,0.038834951456310676,0.038834951456310676,0.038834951456310676,0.038834951456310676,0.038834951456310676,0.038834951456310676,0.038834951456310676,0.0,0.009708737864077669,0.019417475728155338,0.0,0.038834951456310676,0.0,0.0,0.0,0.019417475728155338,0.019417475728155338,0.038834951456310676,0.0,0.0,0.038834951456310676,0.038834951456310676,0.019417475728155338,0.02912621359223301,0.019417475728155338,0.0,0.009708737864077669,0.019417475728155338,0.0
S4_D6 hbo,0.03488372093023256,0.0,0.011627906976744186,0.011627906976744186,0.011627906976744186,0.0,0.0,0.011627906976744186,0.03488372093023256,0.011627906976744186,0.03488372093023256,0.023255813953488372,0.03488372093023256,0.0,0.03488372093023256,0.0,0.0,0.023255813953488372,0.03488372093023256,0.0,0.03488372093023256,0.03488372093023256,0.03488372093023256,0.03488372093023256,0.03488372093023256,0.03488372093023256,0.03488372093023256,0.03488372093023256,0.03488372093023256,0.03488372093023256,0.0,0.011627906976744186,0.023255813953488372,0.0,0.03488372093023256,0.0,0.0,0.0,0.023255813953488372,0.023255813953488372,0.03488372093023256,0.0,0.0,0.03488372093023256,0.03488372093023256,0.023255813953488372,0.03488372093023256,0.023255813953488372,0.0,0.011627906976744186,0.023255813953488372,0.0
S4_D11 hbo,0.038834951456310676,0.0,0.009708737864077669,0.009708737864077669,0.009708737864077669,0.0,0.0,0.009708737864077669,0.038834951456310676,0.009708737864077669,0.02912621359223301,0.019417475728155338,0.02912621359223301,0.0,0.038834951456310676,0.0,0.0,0.019417475728155338,0.038834951456310676,0.0,0.038834951456310676,0.02912621359223301,0.038834951456310676,0.038834951456310676,0.038834951456310676,0.038834951456310676,0.038834951456310676,0.038834951456310676,0.038834951456310676,0.038834951456310676,0.0,0.009708737864077669,0.019417475728155338,0.0,0.038834951456310676,0.0,0.0,0.0,0.019417475728155338,0.019417475728155338,0.038834951456310676,0.0,0.0,0.038834951456310676,0.038834951456310676,0.019417475728155338,0.02912621359223301,0.019417475728155338,0.0,0.009708737864077669,0.019417475728155338,0.0
S5_D3 hbo,0.0,0.0,0.0,0.0,0.0,0.0,0.0,0.0,0.0,0.0,0.0,0.0,0.0,0.0,0.0,0.0,0.0,0.0,0.0,0.0,0.0,0.0,0.0,0.0,0.0,0.0,0.0,0.0,0.0,0.0,0.0,0.0,0.0,0.0,0.0,0.0,0.0,0.0,0.0,0.0,0.0,0.0,0.0,0.0,0.0,0.0,0.0,0.0,0.0,0.0,0.0,0.0
S5_D5 hbo,0.036036036036036036,0.0,0.009009009009009009,0.009009009009009009,0.009009009009009009,0.0,0.0,0.009009009009009009,0.036036036036036036,0.009009009009009009,0.02702702702702703,0.018018018018018018,0.02702702702702703,0.0,0.036036036036036036,0.0,0.0,0.018018018018018018,0.04504504504504504,0.0,0.036036036036036036,0.02702702702702703,0.04504504504504504,0.04504504504504504,0.04504504504504504,0.04504504504504504,0.036036036036036036,0.04504504504504504,0.04504504504504504,0.036036036036036036,0.0,0.009009009009009009,0.018018018018018018,0.0,0.036036036036036036,0.0,0.0,0.0,0.018018018018018018,0.018018018018018018,0.04504504504504504,0.0,0.0,0.036036036036036036,0.036036036036036036,0.018018018018018018,0.02702702702702703,0.018018018018018018,0.0,0.009009009009009009,0.018018018018018018,0.0
S5_D7 hbo,0.0,0.0,0.0,0.0,0.0,0.0,0.0,0.0,0.0,0.0,0.0,0.0,0.0,0.0,0.0,0.0,0.0,0.0,0.0,0.0,0.0,0.0,0.0,0.0,0.0,0.0,0.0,0.0,0.0,0.0,0.0,0.0,0.0,0.0,0.0,0.0,0.0,0.0,0.0,0.0,0.0,0.0,0.0,0.0,0.0,0.0,0.0,0.0,0.0,0.0,0.0,0.0
S6_D4 hbo,0.0,0.0,0.0,0.0,0.0,0.0,0.0,0.0,0.0,0.0,0.0,0.0,0.0,0.0,0.0,0.0,0.0,0.0,0.0,0.0,0.0,0.0,0.0,0.0,0.0,0.0,0.0,0.0,0.0,0.0,0.0,0.0,0.0,0.0,0.0,0.0,0.0,0.0,0.0,0.0,0.0,0.0,0.0,0.0,0.0,0.0,0.0,0.0,0.0,0.0,0.0,0.0
S6_D5 hbo,0.03488372093023256,0.0,0.011627906976744186,0.011627906976744186,0.011627906976744186,0.0,0.0,0.011627906976744186,0.03488372093023256,0.011627906976744186,0.03488372093023256,0.023255813953488372,0.03488372093023256,0.0,0.03488372093023256,0.0,0.0,0.023255813953488372,0.03488372093023256,0.0,0.03488372093023256,0.03488372093023256,0.03488372093023256,0.03488372093023256,0.03488372093023256,0.03488372093023256,0.03488372093023256,0.03488372093023256,0.03488372093023256,0.03488372093023256,0.0,0.011627906976744186,0.023255813953488372,0.0,0.03488372093023256,0.0,0.0,0.0,0.023255813953488372,0.023255813953488372,0.03488372093023256,0.0,0.0,0.03488372093023256,0.03488372093023256,0.023255813953488372,0.03488372093023256,0.023255813953488372,0.0,0.011627906976744186,0.023255813953488372,0.0
S6_D6 hbo,0.03278688524590164,0.0,0.00819672131147541,0.00819672131147541,0.00819672131147541,0.0,0.0,0.00819672131147541,0.03278688524590164,0.00819672131147541,0.02459016393442623,0.01639344262295082,0.02459016393442623,0.0,0.03278688524590164,0.0,0.0,0.01639344262295082,0.09836065573770492,0.0,0.03278688524590164,0.02459016393442623,0.040983606557377046,0.040983606557377046,0.040983606557377046,0.040983606557377046,0.03278688524590164,0.04918032786885246,0.04918032786885246,0.03278688524590164,0.0,0.00819672131147541,0.01639344262295082,0.0,0.03278688524590164,0.0,0.0,0.0,0.01639344262295082,0.01639344262295082,0.05737704918032787,0.0,0.0,0.03278688524590164,0.03278688524590164,0.01639344262295082,0.02459016393442623,0.01639344262295082,0.0,0.00819672131147541,0.01639344262295082,0.0
S6_D8 hbo,0.0,0.0,0.0,0.0,0.0,0.0,0.0,0.0,0.0,0.0,0.0,0.0,0.0,0.0,0.0,0.0,0.0,0.0,0.0,0.0,0.0,0.0,0.0,0.0,0.0,0.0,0.0,0.0,0.0,0.0,0.0,0.0,0.0,0.0,0.0,0.0,0.0,0.0,0.0,0.0,0.0,0.0,0.0,0.0,0.0,0.0,0.0,0.0,0.0,0.0,0.0,0.0
S7_D5 hbo,0.036036036036036036,0.0,0.009009009009009009,0.009009009009009009,0.009009009009009009,0.0,0.0,0.009009009009009009,0.036036036036036036,0.009009009009009009,0.02702702702702703,0.018018018018018018,0.02702702702702703,0.0,0.036036036036036036,0.0,0.0,0.018018018018018018,0.04504504504504504,0.0,0.036036036036036036,0.02702702702702703,0.04504504504504504,0.04504504504504504,0.04504504504504504,0.04504504504504504,0.036036036036036036,0.04504504504504504,0.04504504504504504,0.036036036036036036,0.0,0.009009009009009009,0.018018018018018018,0.0,0.036036036036036036,0.0,0.0,0.0,0.018018018018018018,0.018018018018018018,0.04504504504504504,0.0,0.0,0.036036036036036036,0.036036036036036036,0.018018018018018018,0.02702702702702703,0.018018018018018018,0.0,0.009009009009009009,0.018018018018018018,0.0
S7_D7 hbo,0.038834951456310676,0.0,0.009708737864077669,0.009708737864077669,0.009708737864077669,0.0,0.0,0.009708737864077669,0.038834951456310676,0.009708737864077669,0.02912621359223301,0.019417475728155338,0.02912621359223301,0.0,0.038834951456310676,0.0,0.0,0.019417475728155338,0.038834951456310676,0.0,0.038834951456310676,0.02912621359223301,0.038834951456310676,0.038834951456310676,0.038834951456310676,0.038834951456310676,0.038834951456310676,0.038834951456310676,0.038834951456310676,0.038834951456310676,0.0,0.009708737864077669,0.019417475728155338,0.0,0.038834951456310676,0.0,0.0,0.0,0.019417475728155338,0.019417475728155338,0.038834951456310676,0.0,0.0,0.038834951456310676,0.038834951456310676,0.019417475728155338,0.02912621359223301,0.019417475728155338,0.0,0.009708737864077669,0.019417475728155338,0.0
S7_D8 hbo,0.034782608695652174,0.0,0.008695652173913044,0.008695652173913044,0.008695652173913044,0.0,0.0,0.008695652173913044,0.034782608695652174,0.008695652173913044,0.02608695652173913,0.017391304347826087,0.02608695652173913,0.0,0.034782608695652174,0.0,0.0,0.017391304347826087,0.05217391304347826,0.0,0.034782608695652174,0.02608695652173913,0.043478260869565216,0.043478260869565216,0.043478260869565216,0.043478260869565216,0.034782608695652174,0.05217391304347826,0.05217391304347826,0.034782608695652174,0.0,0.008695652173913044,0.017391304347826087,0.0,0.034782608695652174,0.0,0.0,0.0,0.017391304347826087,0.017391304347826087,0.05217391304347826,0.0,0.0,0.034782608695652174,0.034782608695652174,0.017391304347826087,0.02608695652173913,0.017391304347826087,0.0,0.008695652173913044,0.017391304347826087,0.0
S8_D6 hbo,0.034782608695652174,0.0,0.008695652173913044,0.008695652173913044,0.008695652173913044,0.0,0.0,0.008695652173913044,0.034782608695652174,0.008695652173913044,0.02608695652173913,0.017391304347826087,0.02608695652173913,0.0,0.034782608695652174,0.0,0.0,0.017391304347826087,0.05217391304347826,0.0,0.034782608695652174,0.02608695652173913,0.043478260869565216,0.043478260869565216,0.043478260869565216,0.043478260869565216,0.034782608695652174,0.05217391304347826,0.05217391304347826,0.034782608695652174,0.0,0.008695652173913044,0.017391304347826087,0.0,0.034782608695652174,0.0,0.0,0.0,0.017391304347826087,0.017391304347826087,0.05217391304347826,0.0,0.0,0.034782608695652174,0.034782608695652174,0.017391304347826087,0.02608695652173913,0.017391304347826087,0.0,0.008695652173913044,0.017391304347826087,0.0
S8_D8 hbo,0.034782608695652174,0.0,0.008695652173913044,0.008695652173913044,0.008695652173913044,0.0,0.0,0.008695652173913044,0.034782608695652174,0.008695652173913044,0.02608695652173913,0.017391304347826087,0.02608695652173913,0.0,0.034782608695652174,0.0,0.0,0.017391304347826087,0.05217391304347826,0.0,0.034782608695652174,0.02608695652173913,0.043478260869565216,0.043478260869565216,0.043478260869565216,0.043478260869565216,0.034782608695652174,0.05217391304347826,0.05217391304347826,0.034782608695652174,0.0,0.008695652173913044,0.017391304347826087,0.0,0.034782608695652174,0.0,0.0,0.0,0.017391304347826087,0.017391304347826087,0.05217391304347826,0.0,0.0,0.034782608695652174,0.034782608695652174,0.017391304347826087,0.02608695652173913,0.017391304347826087,0.0,0.008695652173913044,0.017391304347826087,0.0
S8_D15 hbo,0.034782608695652174,0.0,0.008695652173913044,0.008695652173913044,0.008695652173913044,0.0,0.0,0.008695652173913044,0.034782608695652174,0.008695652173913044,0.02608695652173913,0.017391304347826087,0.02608695652173913,0.0,0.034782608695652174,0.0,0.0,0.017391304347826087,0.05217391304347826,0.0,0.034782608695652174,0.02608695652173913,0.043478260869565216,0.043478260869565216,0.043478260869565216,0.043478260869565216,0.034782608695652174,0.05217391304347826,0.05217391304347826,0.034782608695652174,0.0,0.008695652173913044,0.017391304347826087,0.0,0.034782608695652174,0.0,0.0,0.0,0.017391304347826087,0.017391304347826087,0.05217391304347826,0.0,0.0,0.034782608695652174,0.034782608695652174,0.017391304347826087,0.02608695652173913,0.017391304347826087,0.0,0.008695652173913044,0.017391304347826087,0.0
S9_D2 hbo,0.036036036036036036,0.0,0.009009009009009009,0.009009009009009009,0.009009009009009009,0.0,0.0,0.009009009009009009,0.036036036036036036,0.009009009009009009,0.02702702702702703,0.018018018018018018,0.02702702702702703,0.0,0.036036036036036036,0.0,0.0,0.018018018018018018,0.04504504504504504,0.0,0.036036036036036036,0.02702702702702703,0.04504504504504504,0.04504504504504504,0.04504504504504504,0.04504504504504504,0.036036036036036036,0.04504504504504504,0.04504504504504504,0.036036036036036036,0.0,0.009009009009009009,0.018018018018018018,0.0,0.036036036036036036,0.0,0.0,0.0,0.018018018018018018,0.018018018018018018,0.04504504504504504,0.0,0.0,0.036036036036036036,0.036036036036036036,0.018018018018018018,0.02702702702702703,0.018018018018018018,0.0,0.009009009009009009,0.018018018018018018,0.0
S9_D9 hbo,0.03418803418803419,0.0,0.008547008547008548,0.008547008547008548,0.008547008547008548,0.0,0.0,0.008547008547008548,0.03418803418803419,0.008547008547008548,0.02564102564102564,0.017094017094017096,0.02564102564102564,0.0,0.03418803418803419,0.0,0.0,0.017094017094017096,0.05982905982905983,0.0,0.03418803418803419,0.02564102564102564,0.042735042735042736,0.042735042735042736,0.042735042735042736,0.042735042735042736,0.03418803418803419,0.05128205128205128,0.05128205128205128,0.03418803418803419,0.0,0.008547008547008548,0.017094017094017096,0.0,0.03418803418803419,0.0,0.0,0.0,0.017094017094017096,0.017094017094017096,0.05982905982905983,0.0,0.0,0.03418803418803419,0.03418803418803419,0.017094017094017096,0.02564102564102564,0.017094017094017096,0.0,0.008547008547008548,0.017094017094017096,0.0
S9_D11 hbo,0.03418803418803419,0.0,0.008547008547008548,0.008547008547008548,0.008547008547008548,0.0,0.0,0.008547008547008548,0.03418803418803419,0.008547008547008548,0.02564102564102564,0.017094017094017096,0.02564102564102564,0.0,0.03418803418803419,0.0,0.0,0.017094017094017096,0.05982905982905983,0.0,0.03418803418803419,0.02564102564102564,0.042735042735042736,0.042735042735042736,0.042735042735042736,0.042735042735042736,0.03418803418803419,0.05128205128205128,0.05128205128205128,0.03418803418803419,0.0,0.008547008547008548,0.017094017094017096,0.0,0.03418803418803419,0.0,0.0,0.0,0.017094017094017096,0.017094017094017096,0.05982905982905983,0.0,0.0,0.03418803418803419,0.03418803418803419,0.017094017094017096,0.02564102564102564,0.017094017094017096,0.0,0.008547008547008548,0.017094017094017096,0.0
S10_D9 hbo,0.036036036036036036,0.0,0.009009009009009009,0.009009009009009009,0.009009009009009009,0.0,0.0,0.009009009009009009,0.036036036036036036,0.009009009009009009,0.02702702702702703,0.018018018018018018,0.02702702702702703,0.0,0.036036036036036036,0.0,0.0,0.018018018018018018,0.04504504504504504,0.0,0.036036036036036036,0.02702702702702703,0.04504504504504504,0.04504504504504504,0.04504504504504504,0.04504504504504504,0.036036036036036036,0.04504504504504504,0.04504504504504504,0.036036036036036036,0.0,0.009009009009009009,0.018018018018018018,0.0,0.036036036036036036,0.0,0.0,0.0,0.018018018018018018,0.018018018018018018,0.04504504504504504,0.0,0.0,0.036036036036036036,0.036036036036036036,0.018018018018018018,0.02702702702702703,0.018018018018018018,0.0,0.009009009009009009,0.018018018018018018,0.0
S10_D10 hbo,0.0,0.0,0.0,0.0,0.0,0.0,0.0,0.0,0.0,0.0,0.0,0.0,0.0,0.0,0.0,0.0,0.0,0.0,0.0,0.0,0.0,0.0,0.0,0.0,0.0,0.0,0.0,0.0,0.0,0.0,0.0,0.0,0.0,0.0,0.0,0.0,0.0,0.0,0.0,0.0,0.0,0.0,0.0,0.0,0.0,0.0,0.0,0.0,0.0,0.0,0.0,0.0
S10_D12 hbo,0.03076923076923077,0.0,0.015384615384615385,0.015384615384615385,0.015384615384615385,0.0,0.0,0.015384615384615385,0.03076923076923077,0.015384615384615385,0.03076923076923077,0.03076923076923077,0.03076923076923077,0.0,0.03076923076923077,0.0,0.0,0.03076923076923077,0.03076923076923077,0.0,0.03076923076923077,0.03076923076923077,0.03076923076923077,0.03076923076923077,0.03076923076923077,0.03076923076923077,0.03076923076923077,0.03076923076923077,0.03076923076923077,0.03076923076923077,0.0,0.015384615384615385,0.03076923076923077,0.0,0.03076923076923077,0.0,0.0,0.0,0.03076923076923077,0.03076923076923077,0.03076923076923077,0.0,0.0,0.03076923076923077,0.03076923076923077,0.03076923076923077,0.03076923076923077,0.03076923076923077,0.0,0.015384615384615385,0.03076923076923077,0.0
S11_D9 hbo,0.03488372093023256,0.0,0.011627906976744186,0.011627906976744186,0.011627906976744186,0.0,0.0,0.011627906976744186,0.03488372093023256,0.011627906976744186,0.03488372093023256,0.023255813953488372,0.03488372093023256,0.0,0.03488372093023256,0.0,0.0,0.023255813953488372,0.03488372093023256,0.0,0.03488372093023256,0.03488372093023256,0.03488372093023256,0.03488372093023256,0.03488372093023256,0.03488372093023256,0.03488372093023256,0.03488372093023256,0.03488372093023256,0.03488372093023256,0.0,0.011627906976744186,0.023255813953488372,0.0,0.03488372093023256,0.0,0.0,0.0,0.023255813953488372,0.023255813953488372,0.03488372093023256,0.0,0.0,0.03488372093023256,0.03488372093023256,0.023255813953488372,0.03488372093023256,0.023255813953488372,0.0,0.011627906976744186,0.023255813953488372,0.0
S11_D11 hbo,0.027777777777777776,0.0,0.027777777777777776,0.027777777777777776,0.027777777777777776,0.0,0.0,0.027777777777777776,0.027777777777777776,0.027777777777777776,0.027777777777777776,0.027777777777777776,0.027777777777777776,0.0,0.027777777777777776,0.0,0.0,0.027777777777777776,0.027777777777777776,0.0,0.027777777777777776,0.027777777777777776,0.027777777777777776,0.027777777777777776,0.027777777777777776,0.027777777777777776,0.027777777777777776,0.027777777777777776,0.027777777777777776,0.027777777777777776,0.0,0.027777777777777776,0.027777777777777776,0.0,0.027777777777777776,0.0,0.0,0.0,0.027777777777777776,0.027777777777777776,0.027777777777777776,0.0,0.0,0.027777777777777776,0.027777777777777776,0.027777777777777776,0.027777777777777776,0.027777777777777776,0.0,0.027777777777777776,0.027777777777777776,0.0
S11_D12 hbo,0.036036036036036036,0.0,0.009009009009009009,0.009009009009009009,0.009009009009009009,0.0,0.0,0.009009009009009009,0.036036036036036036,0.009009009009009009,0.02702702702702703,0.018018018018018018,0.02702702702702703,0.0,0.036036036036036036,0.0,0.0,0.018018018018018018,0.04504504504504504,0.0,0.036036036036036036,0.02702702702702703,0.04504504504504504,0.04504504504504504,0.04504504504504504,0.04504504504504504,0.036036036036036036,0.04504504504504504,0.04504504504504504,0.036036036036036036,0.0,0.009009009009009009,0.018018018018018018,0.0,0.036036036036036036,0.0,0.0,0.0,0.018018018018018018,0.018018018018018018,0.04504504504504504,0.0,0.0,0.036036036036036036,0.036036036036036036,0.018018018018018018,0.02702702702702703,0.018018018018018018,0.0,0.009009009009009009,0.018018018018018018,0.0
S11_D13 hbo,0.0,0.0,0.0,0.0,0.0,0.0,0.0,0.0,0.0,0.0,0.0,0.0,0.0,0.0,0.0,0.0,0.0,0.0,0.0,0.0,0.0,0.0,0.0,0.0,0.0,0.0,0.0,0.0,0.0,0.0,0.0,0.0,0.0,0.0,0.0,0.0,0.0,0.0,0.0,0.0,0.0,0.0,0.0,0.0,0.0,0.0,0.0,0.0,0.0,0.0,0.0,0.0
S12_D10 hbo,0.0,0.0,0.0,0.0,0.0,0.0,0.0,0.0,0.0,0.0,0.0,0.0,0.0,0.0,0.0,0.0,0.0,0.0,0.0,0.0,0.0,0.0,0.0,0.0,0.0,0.0,0.0,0.0,0.0,0.0,0.0,0.0,0.0,0.0,0.0,0.0,0.0,0.0,0.0,0.0,0.0,0.0,0.0,0.0,0.0,0.0,0.0,0.0,0.0,0.0,0.0,0.0
S12_D12 hbo,0.0,0.0,0.0,0.0,0.0,0.0,0.0,0.0,0.0,0.0,0.0,0.0,0.0,0.0,0.0,0.0,0.0,0.0,0.0,0.0,0.0,0.0,0.0,0.0,0.0,0.0,0.0,0.0,0.0,0.0,0.0,0.0,0.0,0.0,0.0,0.0,0.0,0.0,0.0,0.0,0.0,0.0,0.0,0.0,0.0,0.0,0.0,0.0,0.0,0.0,0.0,0.0
S12_D14 hbo,0.03488372093023256,0.0,0.011627906976744186,0.011627906976744186,0.011627906976744186,0.0,0.0,0.011627906976744186,0.03488372093023256,0.011627906976744186,0.03488372093023256,0.023255813953488372,0.03488372093023256,0.0,0.03488372093023256,0.0,0.0,0.023255813953488372,0.03488372093023256,0.0,0.03488372093023256,0.03488372093023256,0.03488372093023256,0.03488372093023256,0.03488372093023256,0.03488372093023256,0.03488372093023256,0.03488372093023256,0.03488372093023256,0.03488372093023256,0.0,0.011627906976744186,0.023255813953488372,0.0,0.03488372093023256,0.0,0.0,0.0,0.023255813953488372,0.023255813953488372,0.03488372093023256,0.0,0.0,0.03488372093023256,0.03488372093023256,0.023255813953488372,0.03488372093023256,0.023255813953488372,0.0,0.011627906976744186,0.023255813953488372,0.0
S13_D6 hbo,0.03488372093023256,0.0,0.011627906976744186,0.011627906976744186,0.011627906976744186,0.0,0.0,0.011627906976744186,0.03488372093023256,0.011627906976744186,0.03488372093023256,0.023255813953488372,0.03488372093023256,0.0,0.03488372093023256,0.0,0.0,0.023255813953488372,0.03488372093023256,0.0,0.03488372093023256,0.03488372093023256,0.03488372093023256,0.03488372093023256,0.03488372093023256,0.03488372093023256,0.03488372093023256,0.03488372093023256,0.03488372093023256,0.03488372093023256,0.0,0.011627906976744186,0.023255813953488372,0.0,0.03488372093023256,0.0,0.0,0.0,0.023255813953488372,0.023255813953488372,0.03488372093023256,0.0,0.0,0.03488372093023256,0.03488372093023256,0.023255813953488372,0.03488372093023256,0.023255813953488372,0.0,0.011627906976744186,0.023255813953488372,0.0
S13_D11 hbo,0.03389830508474576,0.0,0.00847457627118644,0.00847457627118644,0.00847457627118644,0.0,0.0,0.00847457627118644,0.03389830508474576,0.00847457627118644,0.025423728813559324,0.01694915254237288,0.025423728813559324,0.0,0.03389830508474576,0.0,0.0,0.01694915254237288,0.06779661016949153,0.0,0.03389830508474576,0.025423728813559324,0.0423728813559322,0.0423728813559322,0.0423728813559322,0.0423728813559322,0.03389830508474576,0.05084745762711865,0.05084745762711865,0.03389830508474576,0.0,0.00847457627118644,0.01694915254237288,0.0,0.03389830508474576,0.0,0.0,0.0,0.01694915254237288,0.01694915254237288,0.059322033898305086,0.0,0.0,0.03389830508474576,0.03389830508474576,0.01694915254237288,0.025423728813559324,0.01694915254237288,0.0,0.00847457627118644,0.01694915254237288,0.0
S13_D13 hbo,0.0,0.0,0.0,0.0,0.0,0.0,0.0,0.0,0.0,0.0,0.0,0.0,0.0,0.0,0.0,0.0,0.0,0.0,0.0,0.0,0.0,0.0,0.0,0.0,0.0,0.0,0.0,0.0,0.0,0.0,0.0,0.0,0.0,0.0,0.0,0.0,0.0,0.0,0.0,0.0,0.0,0.0,0.0,0.0,0.0,0.0,0.0,0.0,0.0,0.0,0.0,0.0
S13_D15 hbo,0.0,0.0,0.0,0.0,0.0,0.0,0.0,0.0,0.0,0.0,0.0,0.0,0.0,0.0,0.0,0.0,0.0,0.0,0.0,0.0,0.0,0.0,0.0,0.0,0.0,0.0,0.0,0.0,0.0,0.0,0.0,0.0,0.0,0.0,0.0,0.0,0.0,0.0,0.0,0.0,0.0,0.0,0.0,0.0,0.0,0.0,0.0,0.0,0.0,0.0,0.0,0.0
S14_D12 hbo,0.036036036036036036,0.0,0.009009009009009009,0.009009009009009009,0.009009009009009009,0.0,0.0,0.009009009009009009,0.036036036036036036,0.009009009009009009,0.02702702702702703,0.018018018018018018,0.02702702702702703,0.0,0.036036036036036036,0.0,0.0,0.018018018018018018,0.04504504504504504,0.0,0.036036036036036036,0.02702702702702703,0.04504504504504504,0.04504504504504504,0.04504504504504504,0.04504504504504504,0.036036036036036036,0.04504504504504504,0.04504504504504504,0.036036036036036036,0.0,0.009009009009009009,0.018018018018018018,0.0,0.036036036036036036,0.0,0.0,0.0,0.018018018018018018,0.018018018018018018,0.04504504504504504,0.0,0.0,0.036036036036036036,0.036036036036036036,0.018018018018018018,0.02702702702702703,0.018018018018018018,0.0,0.009009009009009009,0.018018018018018018,0.0
S14_D13 hbo,0.036036036036036036,0.0,0.009009009009009009,0.009009009009009009,0.009009009009009009,0.0,0.0,0.009009009009009009,0.036036036036036036,0.009009009009009009,0.02702702702702703,0.018018018018018018,0.02702702702702703,0.0,0.036036036036036036,0.0,0.0,0.018018018018018018,0.04504504504504504,0.0,0.036036036036036036,0.02702702702702703,0.04504504504504504,0.04504504504504504,0.04504504504504504,0.04504504504504504,0.036036036036036036,0.04504504504504504,0.04504504504504504,0.036036036036036036,0.0,0.009009009009009009,0.018018018018018018,0.0,0.036036036036036036,0.0,0.0,0.0,0.018018018018018018,0.018018018018018018,0.04504504504504504,0.0,0.0,0.036036036036036036,0.036036036036036036,0.018018018018018018,0.02702702702702703,0.018018018018018018,0.0,0.009009009009009009,0.018018018018018018,0.0
S14_D14 hbo,0.03488372093023256,0.0,0.011627906976744186,0.011627906976744186,0.011627906976744186,0.0,0.0,0.011627906976744186,0.03488372093023256,0.011627906976744186,0.03488372093023256,0.023255813953488372,0.03488372093023256,0.0,0.03488372093023256,0.0,0.0,0.023255813953488372,0.03488372093023256,0.0,0.03488372093023256,0.03488372093023256,0.03488372093023256,0.03488372093023256,0.03488372093023256,0.03488372093023256,0.03488372093023256,0.03488372093023256,0.03488372093023256,0.03488372093023256,0.0,0.011627906976744186,0.023255813953488372,0.0,0.03488372093023256,0.0,0.0,0.0,0.023255813953488372,0.023255813953488372,0.03488372093023256,0.0,0.0,0.03488372093023256,0.03488372093023256,0.023255813953488372,0.03488372093023256,0.023255813953488372,0.0,0.011627906976744186,0.023255813953488372,0.0
S14_D16 hbo,0.038834951456310676,0.0,0.009708737864077669,0.009708737864077669,0.009708737864077669,0.0,0.0,0.009708737864077669,0.038834951456310676,0.009708737864077669,0.02912621359223301,0.019417475728155338,0.02912621359223301,0.0,0.038834951456310676,0.0,0.0,0.019417475728155338,0.038834951456310676,0.0,0.038834951456310676,0.02912621359223301,0.038834951456310676,0.038834951456310676,0.038834951456310676,0.038834951456310676,0.038834951456310676,0.038834951456310676,0.038834951456310676,0.038834951456310676,0.0,0.009708737864077669,0.019417475728155338,0.0,0.038834951456310676,0.0,0.0,0.0,0.019417475728155338,0.019417475728155338,0.038834951456310676,0.0,0.0,0.038834951456310676,0.038834951456310676,0.019417475728155338,0.02912621359223301,0.019417475728155338,0.0,0.009708737864077669,0.019417475728155338,0.0
S15_D13 hbo,0.03488372093023256,0.0,0.011627906976744186,0.011627906976744186,0.011627906976744186,0.0,0.0,0.011627906976744186,0.03488372093023256,0.011627906976744186,0.03488372093023256,0.023255813953488372,0.03488372093023256,0.0,0.03488372093023256,0.0,0.0,0.023255813953488372,0.03488372093023256,0.0,0.03488372093023256,0.03488372093023256,0.03488372093023256,0.03488372093023256,0.03488372093023256,0.03488372093023256,0.03488372093023256,0.03488372093023256,0.03488372093023256,0.03488372093023256,0.0,0.011627906976744186,0.023255813953488372,0.0,0.03488372093023256,0.0,0.0,0.0,0.023255813953488372,0.023255813953488372,0.03488372093023256,0.0,0.0,0.03488372093023256,0.03488372093023256,0.023255813953488372,0.03488372093023256,0.023255813953488372,0.0,0.011627906976744186,0.023255813953488372,0.0
S15_D15 hbo,0.027777777777777776,0.0,0.027777777777777776,0.027777777777777776,0.027777777777777776,0.0,0.0,0.027777777777777776,0.027777777777777776,0.027777777777777776,0.027777777777777776,0.027777777777777776,0.027777777777777776,0.0,0.027777777777777776,0.0,0.0,0.027777777777777776,0.027777777777777776,0.0,0.027777777777777776,0.027777777777777776,0.027777777777777776,0.027777777777777776,0.027777777777777776,0.027777777777777776,0.027777777777777776,0.027777777777777776,0.027777777777777776,0.027777777777777776,0.0,0.027777777777777776,0.027777777777777776,0.0,0.027777777777777776,0.0,0.0,0.0,0.027777777777777776,0.027777777777777776,0.027777777777777776,0.0,0.0,0.027777777777777776,0.027777777777777776,0.027777777777777776,0.027777777777777776,0.027777777777777776,0.0,0.027777777777777776,0.027777777777777776,0.0
S15_D16 hbo,0.03076923076923077,0.0,0.015384615384615385,0.015384615384615385,0.015384615384615385,0.0,0.0,0.015384615384615385,0.03076923076923077,0.015384615384615385,0.03076923076923077,0.03076923076923077,0.03076923076923077,0.0,0.03076923076923077,0.0,0.0,0.03076923076923077,0.03076923076923077,0.0,0.03076923076923077,0.03076923076923077,0.03076923076923077,0.03076923076923077,0.03076923076923077,0.03076923076923077,0.03076923076923077,0.03076923076923077,0.03076923076923077,0.03076923076923077,0.0,0.015384615384615385,0.03076923076923077,0.0,0.03076923076923077,0.0,0.0,0.0,0.03076923076923077,0.03076923076923077,0.03076923076923077,0.0,0.0,0.03076923076923077,0.03076923076923077,0.03076923076923077,0.03076923076923077,0.03076923076923077,0.0,0.015384615384615385,0.03076923076923077,0.0
S16_D14 hbo,0.03488372093023256,0.0,0.011627906976744186,0.011627906976744186,0.011627906976744186,0.0,0.0,0.011627906976744186,0.03488372093023256,0.011627906976744186,0.03488372093023256,0.023255813953488372,0.03488372093023256,0.0,0.03488372093023256,0.0,0.0,0.023255813953488372,0.03488372093023256,0.0,0.03488372093023256,0.03488372093023256,0.03488372093023256,0.03488372093023256,0.03488372093023256,0.03488372093023256,0.03488372093023256,0.03488372093023256,0.03488372093023256,0.03488372093023256,0.0,0.011627906976744186,0.023255813953488372,0.0,0.03488372093023256,0.0,0.0,0.0,0.023255813953488372,0.023255813953488372,0.03488372093023256,0.0,0.0,0.03488372093023256,0.03488372093023256,0.023255813953488372,0.03488372093023256,0.023255813953488372,0.0,0.011627906976744186,0.023255813953488372,0.0
S16_D16 hbo,0.027777777777777776,0.0,0.027777777777777776,0.027777777777777776,0.027777777777777776,0.0,0.0,0.027777777777777776,0.027777777777777776,0.027777777777777776,0.027777777777777776,0.027777777777777776,0.027777777777777776,0.0,0.027777777777777776,0.0,0.0,0.027777777777777776,0.027777777777777776,0.0,0.027777777777777776,0.027777777777777776,0.027777777777777776,0.027777777777777776,0.027777777777777776,0.027777777777777776,0.027777777777777776,0.027777777777777776,0.027777777777777776,0.027777777777777776,0.0,0.027777777777777776,0.027777777777777776,0.0,0.027777777777777776,0.0,0.0,0.0,0.027777777777777776,0.027777777777777776,0.027777777777777776,0.0,0.0,0.027777777777777776,0.027777777777777776,0.027777777777777776,0.027777777777777776,0.027777777777777776,0.0,0.027777777777777776,0.027777777777777776,0.0
