,S1_D1 hbo,S1_D3 hbo,S2_D1 hbo,S2_D2 hbo,S2_D4 hbo,S3_D1 hbo,S3_D3 hbo,S3_D4 hbo,S3_D5 hbo,S4_D2 hbo,S4_D4 hbo,S4_D6 hbo,S4_D11 hbo,S5_D3 hbo,S5_D5 hbo,S5_D7 hbo,S6_D4 hbo,S6_D5 hbo,S6_D6 hbo,S6_D8 hbo,S7_D5 hbo,S7_D7 hbo,S7_D8 hbo,S8_D6 hbo,S8_D8 hbo,S8_D15 hbo,S9_D2 hbo,S9_D9 hbo,S9_D11 hbo,S10_D9 hbo,S10_D10 hbo,S10_D12 hbo,S11_D9 hbo,S11_D11 hbo,S11_D12 hbo,S11_D13 hbo,S12_D10 hbo,S12_D12 hbo,S12_D14 hbo,S13_D6 hbo,S13_D11 hbo,S13_D13 hbo,S13_D15 hbo,S14_D12 hbo,S14_D13 hbo,S14_D14 hbo,S14_D16 hbo,S15_D13 hbo,S15_D15 hbo,S15_D16 hbo,S16_D14 hbo,S16_D16 hbo
S1_D1 hbo,0.0,0.0,0.0,0.0,0.0,0.0,0.0,0.0,0.0,0.0,0.0,0.0,0.0,0.0,0.0,0.0,0.0,0.0,0.0,0.0,0.0,0.0,0.0,0.0,0.0,0.0,0.0,0.0,0.0,0.0,0.0,0.0,0.0,0.0,0.0,0.0,0.0,0.0,0.0,0.0,0.0,0.0,0.0,0.0,0.0,0.0,0.0,0.0,0.0,0.0,0.0,0.0
S1_D3 hbo,0.0,0.0,0.0,0.0,0.0,0.0,0.0,0.0,0.0,0.0,0.0,0.0,0.0,0.0,0.0,0.0,0.0,0.0,0.0,0.0,0.0,0.0,0.0,0.0,0.0,0.0,0.0,0.0,0.0,0.0,0.0,0.0,0.0,0.0,0.0,0.0,0.0,0.0,0.0,0.0,0.0,0.0,0.0,0.0,0.0,0.0,0.0,0.0,0.0,0.0,0.0,0.0
S2_D1 hbo,0.0,0.0,0.0,0.0,0.0,0.0,0.0,0.0,0.0,0.0,0.0,0.0,0.0,0.0,0.0,0.0,0.0,0.0,0.0,0.0,0.0,0.0,0.0,0.0,0.0,0.0,0.0,0.0,0.0,0.0,0.0,0.0,0.0,0.0,0.0,0.0,0.0,0.0,0.0,0.0,0.0,0.0,0.0,0.0,0.0,0.0,0.0,0.0,0.0,0.0,0.0,0.0
S2_D2 hbo,0.0,0.0,0.0,0.03816793893129771,0.0,0.0,0.0,0.0,0.04580152671755725,0.04580152671755725,0.0,0.04580152671755725,0.04580152671755725,0.0,0.04580152671755725,0.04580152671755725,0.0,0.04580152671755725,0.04580152671755725,0.04580152671755725,0.04580152671755725,0.04580152671755725,0.04580152671755725,0.04580152671755725,0.04580152671755725,0.04580152671755725,0.04580152671755725,0.0,0.04580152671755725,0.0,0.0,0.0,0.0,0.0,0.0,0.0,0.0,0.0,0.0,0.04580152671755725,0.04580152671755725,0.0,0.04580152671755725,0.0,0.0,0.0,0.0,0.0,0.04580152671755725,0.0,0.0,0.0
S2_D4 hbo,0.0,0.0,0.0,0.0,0.0,0.0,0.0,0.0,0.0,0.0,0.0,0.0,0.0,0.0,0.0,0.0,0.0,0.0,0.0,0.0,0.0,0.0,0.0,0.0,0.0,0.0,0.0,0.0,0.0,0.0,0.0,0.0,0.0,0.0,0.0,0.0,0.0,0.0,0.0,0.0,0.0,0.0,0.0,0.0,0.0,0.0,0.0,0.0,0.0,0.0,0.0,0.0
S3_D1 hbo,0.0,0.0,0.0,0.0,0.0,0.0,0.0,0.0,0.0,0.0,0.0,0.0,0.0,0.0,0.0,0.0,0.0,0.0,0.0,0.0,0.0,0.0,0.0,0.0,0.0,0.0,0.0,0.0,0.0,0.0,0.0,0.0,0.0,0.0,0.0,0.0,0.0,0.0,0.0,0.0,0.0,0.0,0.0,0.0,0.0,0.0,0.0,0.0,0.0,0.0,0.0,0.0
S3_D3 hbo,0.0,0.0,0.0,0.0,0.0,0.0,0.0,0.0,0.0,0.0,0.0,0.0,0.0,0.0,0.0,0.0,0.0,0.0,0.0,0.0,0.0,0.0,0.0,0.0,0.0,0.0,0.0,0.0,0.0,0.0,0.0,0.0,0.0,0.0,0.0,0.0,0.0,0.0,0.0,0.0,0.0,0.0,0.0,0.0,0.0,0.0,0.0,0.0,0.0,0.0,0.0,0.0
S3_D4 hbo,0.0,0.0,0.0,0.0,0.0,0.0,0.0,0.0,0.0,0.0,0.0,0.0,0.0,0.0,0.0,0.0,0.0,0.0,0.0,0.0,0.0,0.0,0.0,0.0,0.0,0.0,0.0,0.0,0.0,0.0,0.0,0.0,0.0,0.0,0.0,0.0,0.0,0.0,0.0,0.0,0.0,0.0,0.0,0.0,0.0,0.0,0.0,0.0,0.0,0.0,0.0,0.0
S3_D5 hbo,0.0,0.0,0.0,0.020833333333333332,0.0,0.0,0.0,0.0,0.04583333333333333,0.04583333333333333,0.0,0.05,0.05,0.0,0.05,0.05,0.0,0.05,0.05,0.05,0.05,0.04583333333333333,0.05,0.05,0.05,0.05,0.05,0.0,0.03333333333333333,0.0,0.0,0.0,0.0,0.0,0.0,0.0,0.0,0.0,0.0,0.05,0.03333333333333333,0.0,0.05,0.0,0.0,0.0,0.0,0.0,0.025,0.0,0.0,0.0
S4_D2 hbo,0.0,0.0,0.0,0.020833333333333332,0.0,0.0,0.0,0.0,0.04583333333333333,0.04583333333333333,0.0,0.05,0.05,0.0,0.05,0.05,0.0,0.05,0.05,0.05,0.05,0.04583333333333333,0.05,0.05,0.05,0.05,0.05,0.0,0.03333333333333333,0.0,0.0,0.0,0.0,0.0,0.0,0.0,0.0,0.0,0.0,0.05,0.03333333333333333,0.0,0.05,0.0,0.0,0.0,0.0,0.0,0.025,0.0,0.0,0.0
S4_D4 hbo,0.0,0.0,0.0,0.0,0.0,0.0,0.0,0.0,0.0,0.0,0.0,0.0,0.0,0.0,0.0,0.0,0.0,0.0,0.0,0.0,0.0,0.0,0.0,0.0,0.0,0.0,0.0,0.0,0.0,0.0,0.0,0.0,0.0,0.0,0.0,0.0,0.0,0.0,0.0,0.0,0.0,0.0,0.0,0.0,0.0,0.0,0.0,0.0,0.0,0.0,0.0,0.0
S4_D6 hbo,0.0,0.0,0.0,0.014245014245014245,0.0,0.0,0.0,0.0,0.03133903133903134,0.03133903133903134,0.0,0.05698005698005698,0.04843304843304843,0.0,0.05982905982905983,0.037037037037037035,0.0,0.05982905982905983,0.05698005698005698,0.03418803418803419,0.05982905982905983,0.03133903133903134,0.05982905982905983,0.05982905982905983,0.05982905982905983,0.05982905982905983,0.05982905982905983,0.0,0.022792022792022793,0.0,0.0,0.0,0.0,0.0,0.0,0.0,0.0,0.0,0.0,0.05982905982905983,0.022792022792022793,0.0,0.05698005698005698,0.0,0.0,0.0,0.0,0.0,0.017094017094017096,0.0,0.0,0.0
S4_D11 hbo,0.0,0.0,0.0,0.015723270440251572,0.0,0.0,0.0,0.0,0.03459119496855346,0.03459119496855346,0.0,0.05660377358490566,0.05345911949685535,0.0,0.05660377358490566,0.040880503144654086,0.0,0.05660377358490566,0.05660377358490566,0.03773584905660377,0.05660377358490566,0.03459119496855346,0.05660377358490566,0.05660377358490566,0.05660377358490566,0.05660377358490566,0.05660377358490566,0.0,0.025157232704402517,0.0,0.0,0.0,0.0,0.0,0.0,0.0,0.0,0.0,0.0,0.05660377358490566,0.025157232704402517,0.0,0.05660377358490566,0.0,0.0,0.0,0.0,0.0,0.018867924528301886,0.0,0.0,0.0
S5_D3 hbo,0.0,0.0,0.0,0.0,0.0,0.0,0.0,0.0,0.0,0.0,0.0,0.0,0.0,0.0,0.0,0.0,0.0,0.0,0.0,0.0,0.0,0.0,0.0,0.0,0.0,0.0,0.0,0.0,0.0,0.0,0.0,0.0,0.0,0.0,0.0,0.0,0.0,0.0,0.0,0.0,0.0,0.0,0.0,0.0,0.0,0.0,0.0,0.0,0.0,0.0,0.0,0.0
S5_D5 hbo,0.0,0.0,0.0,0.013623978201634877,0.0,0.0,0.0,0.0,0.02997275204359673,0.02997275204359673,0.0,0.05449591280653951,0.04632152588555858,0.0,0.06267029972752043,0.035422343324250684,0.0,0.05994550408719346,0.05449591280653951,0.0326975476839237,0.05722070844686648,0.02997275204359673,0.0653950953678474,0.05994550408719346,0.06267029972752043,0.0653950953678474,0.06267029972752043,0.0,0.021798365122615803,0.0,0.0,0.0,0.0,0.0,0.0,0.0,0.0,0.0,0.0,0.06267029972752043,0.021798365122615803,0.0,0.05449591280653951,0.0,0.0,0.0,0.0,0.0,0.01634877384196185,0.0,0.0,0.0
S5_D7 hbo,0.0,0.0,0.0,0.018726591760299626,0.0,0.0,0.0,0.0,0.04119850187265917,0.04119850187265917,0.0,0.052434456928838954,0.052434456928838954,0.0,0.052434456928838954,0.04868913857677903,0.0,0.052434456928838954,0.052434456928838954,0.0449438202247191,0.052434456928838954,0.04119850187265917,0.052434456928838954,0.052434456928838954,0.052434456928838954,0.052434456928838954,0.052434456928838954,0.0,0.0299625468164794,0.0,0.0,0.0,0.0,0.0,0.0,0.0,0.0,0.0,0.0,0.052434456928838954,0.0299625468164794,0.0,0.052434456928838954,0.0,0.0,0.0,0.0,0.0,0.02247191011235955,0.0,0.0,0.0
S6_D4 hbo,0.0,0.0,0.0,0.0,0.0,0.0,0.0,0.0,0.0,0.0,0.0,0.0,0.0,0.0,0.0,0.0,0.0,0.0,0.0,0.0,0.0,0.0,0.0,0.0,0.0,0.0,0.0,0.0,0.0,0.0,0.0,0.0,0.0,0.0,0.0,0.0,0.0,0.0,0.0,0.0,0.0,0.0,0.0,0.0,0.0,0.0,0.0,0.0,0.0,0.0,0.0,0.0
S6_D5 hbo,0.0,0.0,0.0,0.0136986301369863,0.0,0.0,0.0,0.0,0.030136986301369864,0.030136986301369864,0.0,0.0547945205479452,0.04657534246575343,0.0,0.06301369863013699,0.03561643835616438,0.0,0.06027397260273973,0.0547945205479452,0.03287671232876712,0.057534246575342465,0.030136986301369864,0.06301369863013699,0.06027397260273973,0.06301369863013699,0.06301369863013699,0.06301369863013699,0.0,0.021917808219178082,0.0,0.0,0.0,0.0,0.0,0.0,0.0,0.0,0.0,0.0,0.06301369863013699,0.021917808219178082,0.0,0.0547945205479452,0.0,0.0,0.0,0.0,0.0,0.01643835616438356,0.0,0.0,0.0
S6_D6 hbo,0.0,0.0,0.0,0.014245014245014245,0.0,0.0,0.0,0.0,0.03133903133903134,0.03133903133903134,0.0,0.05698005698005698,0.04843304843304843,0.0,0.05982905982905983,0.037037037037037035,0.0,0.05982905982905983,0.05698005698005698,0.03418803418803419,0.05982905982905983,0.03133903133903134,0.05982905982905983,0.05982905982905983,0.05982905982905983,0.05982905982905983,0.05982905982905983,0.0,0.022792022792022793,0.0,0.0,0.0,0.0,0.0,0.0,0.0,0.0,0.0,0.0,0.05982905982905983,0.022792022792022793,0.0,0.05698005698005698,0.0,0.0,0.0,0.0,0.0,0.017094017094017096,0.0,0.0,0.0
S6_D8 hbo,0.0,0.0,0.0,0.01968503937007874,0.0,0.0,0.0,0.0,0.04330708661417323,0.04330708661417323,0.0,0.051181102362204724,0.051181102362204724,0.0,0.051181102362204724,0.051181102362204724,0.0,0.051181102362204724,0.051181102362204724,0.047244094488188976,0.051181102362204724,0.04330708661417323,0.051181102362204724,0.051181102362204724,0.051181102362204724,0.051181102362204724,0.051181102362204724,0.0,0.031496062992125984,0.0,0.0,0.0,0.0,0.0,0.0,0.0,0.0,0.0,0.0,0.051181102362204724,0.031496062992125984,0.0,0.051181102362204724,0.0,0.0,0.0,0.0,0.0,0.023622047244094488,0.0,0.0,0.0
S7_D5 hbo,0.0,0.0,0.0,0.013927576601671309,0.0,0.0,0.0,0.0,0.03064066852367688,0.03064066852367688,0.0,0.055710306406685235,0.04735376044568245,0.0,0.06128133704735376,0.036211699164345405,0.0,0.06128133704735376,0.055710306406685235,0.033426183844011144,0.0584958217270195,0.03064066852367688,0.06128133704735376,0.06128133704735376,0.06128133704735376,0.06128133704735376,0.06128133704735376,0.0,0.022284122562674095,0.0,0.0,0.0,0.0,0.0,0.0,0.0,0.0,0.0,0.0,0.06128133704735376,0.022284122562674095,0.0,0.055710306406685235,0.0,0.0,0.0,0.0,0.0,0.016713091922005572,0.0,0.0,0.0
S7_D7 hbo,0.0,0.0,0.0,0.020833333333333332,0.0,0.0,0.0,0.0,0.04583333333333333,0.04583333333333333,0.0,0.05,0.05,0.0,0.05,0.05,0.0,0.05,0.05,0.05,0.05,0.04583333333333333,0.05,0.05,0.05,0.05,0.05,0.0,0.03333333333333333,0.0,0.0,0.0,0.0,0.0,0.0,0.0,0.0,0.0,0.0,0.05,0.03333333333333333,0.0,0.05,0.0,0.0,0.0,0.0,0.0,0.025,0.0,0.0,0.0
S7_D8 hbo,0.0,0.0,0.0,0.013477088948787063,0.0,0.0,0.0,0.0,0.029649595687331536,0.029649595687331536,0.0,0.05390835579514825,0.04582210242587601,0.0,0.06199460916442048,0.03504043126684636,0.0,0.05929919137466307,0.05390835579514825,0.03234501347708895,0.05660377358490566,0.029649595687331536,0.07277628032345014,0.05929919137466307,0.06199460916442048,0.0673854447439353,0.06199460916442048,0.0,0.0215633423180593,0.0,0.0,0.0,0.0,0.0,0.0,0.0,0.0,0.0,0.0,0.06199460916442048,0.0215633423180593,0.0,0.05390835579514825,0.0,0.0,0.0,0.0,0.0,0.016172506738544475,0.0,0.0,0.0
S8_D6 hbo,0.0,0.0,0.0,0.0136986301369863,0.0,0.0,0.0,0.0,0.030136986301369864,0.030136986301369864,0.0,0.0547945205479452,0.04657534246575343,0.0,0.06301369863013699,0.03561643835616438,0.0,0.06027397260273973,0.0547945205479452,0.03287671232876712,0.057534246575342465,0.030136986301369864,0.06301369863013699,0.06027397260273973,0.06301369863013699,0.06301369863013699,0.06301369863013699,0.0,0.021917808219178082,0.0,0.0,0.0,0.0,0.0,0.0,0.0,0.0,0.0,0.0,0.06301369863013699,0.021917808219178082,0.0,0.0547945205479452,0.0,0.0,0.0,0.0,0.0,0.01643835616438356,0.0,0.0,0.0
S8_D8 hbo,0.0,0.0,0.0,0.013623978201634877,0.0,0.0,0.0,0.0,0.02997275204359673,0.02997275204359673,0.0,0.05449591280653951,0.04632152588555858,0.0,0.06267029972752043,0.035422343324250684,0.0,0.05994550408719346,0.05449591280653951,0.0326975476839237,0.05722070844686648,0.02997275204359673,0.0653950953678474,0.05994550408719346,0.06267029972752043,0.0653950953678474,0.06267029972752043,0.0,0.021798365122615803,0.0,0.0,0.0,0.0,0.0,0.0,0.0,0.0,0.0,0.0,0.06267029972752043,0.021798365122615803,0.0,0.05449591280653951,0.0,0.0,0.0,0.0,0.0,0.01634877384196185,0.0,0.0,0.0
S8_D15 hbo,0.0,0.0,0.0,0.013513513513513514,0.0,0.0,0.0,0.0,0.02972972972972973,0.02972972972972973,0.0,0.05405405405405406,0.04594594594594595,0.0,0.062162162162162166,0.03513513513513514,0.0,0.05945945945945946,0.05405405405405406,0.032432432432432434,0.05675675675675676,0.02972972972972973,0.07027027027027027,0.05945945945945946,0.062162162162162166,0.06756756756756757,0.062162162162162166,0.0,0.021621621621621623,0.0,0.0,0.0,0.0,0.0,0.0,0.0,0.0,0.0,0.0,0.062162162162162166,0.021621621621621623,0.0,0.05405405405405406,0.0,0.0,0.0,0.0,0.0,0.016216216216216217,0.0,0.0,0.0
S9_D2 hbo,0.0,0.0,0.0,0.013623978201634877,0.0,0.0,0.0,0.0,0.02997275204359673,0.02997275204359673,0.0,0.05449591280653951,0.04632152588555858,0.0,0.06267029972752043,0.035422343324250684,0.0,0.05994550408719346,0.05449591280653951,0.0326975476839237,0.05722070844686648,0.02997275204359673,0.0653950953678474,0.05994550408719346,0.06267029972752043,0.0653950953678474,0.06267029972752043,0.0,0.021798365122615803,0.0,0.0,0.0,0.0,0.0,0.0,0.0,0.0,0.0,0.0,0.06267029972752043,0.021798365122615803,0.0,0.05449591280653951,0.0,0.0,0.0,0.0,0.0,0.01634877384196185,0.0,0.0,0.0
S9_D9 hbo,0.0,0.0,0.0,0.0,0.0,0.0,0.0,0.0,0.0,0.0,0.0,0.0,0.0,0.0,0.0,0.0,0.0,0.0,0.0,0.0,0.0,0.0,0.0,0.0,0.0,0.0,0.0,0.0,0.0,0.0,0.0,0.0,0.0,0.0,0.0,0.0,0.0,0.0,0.0,0.0,0.0,0.0,0.0,0.0,0.0,0.0,0.0,0.0,0.0,0.0,0.0,0.0
S9_D11 hbo,0.0,0.0,0.0,0.026455026455026454,0.0,0.0,0.0,0.0,0.047619047619047616,0.047619047619047616,0.0,0.047619047619047616,0.047619047619047616,0.0,0.047619047619047616,0.047619047619047616,0.0,0.047619047619047616,0.047619047619047616,0.047619047619047616,0.047619047619047616,0.047619047619047616,0.047619047619047616,0.047619047619047616,0.047619047619047616,0.047619047619047616,0.047619047619047616,0.0,0.042328042328042326,0.0,0.0,0.0,0.0,0.0,0.0,0.0,0.0,0.0,0.0,0.047619047619047616,0.042328042328042326,0.0,0.047619047619047616,0.0,0.0,0.0,0.0,0.0,0.031746031746031744,0.0,0.0,0.0
S10_D9 hbo,0.0,0.0,0.0,0.0,0.0,0.0,0.0,0.0,0.0,0.0,0.0,0.0,0.0,0.0,0.0,0.0,0.0,0.0,0.0,0.0,0.0,0.0,0.0,0.0,0.0,0.0,0.0,0.0,0.0,0.0,0.0,0.0,0.0,0.0,0.0,0.0,0.0,0.0,0.0,0.0,0.0,0.0,0.0,0.0,0.0,0.0,0.0,0.0,0.0,0.0,0.0,0.0
S10_D10 hbo,0.0,0.0,0.0,0.0,0.0,0.0,0.0,0.0,0.0,0.0,0.0,0.0,0.0,0.0,0.0,0.0,0.0,0.0,0.0,0.0,0.0,0.0,0.0,0.0,0.0,0.0,0.0,0.0,0.0,0.0,0.0,0.0,0.0,0.0,0.0,0.0,0.0,0.0,0.0,0.0,0.0,0.0,0.0,0.0,0.0,0.0,0.0,0.0,0.0,0.0,0.0,0.0
S10_D12 hbo,0.0,0.0,0.0,0.0,0.0,0.0,0.0,0.0,0.0,0.0,0.0,0.0,0.0,0.0,0.0,0.0,0.0,0.0,0.0,0.0,0.0,0.0,0.0,0.0,0.0,0.0,0.0,0.0,0.0,0.0,0.0,0.0,0.0,0.0,0.0,0.0,0.0,0.0,0.0,0.0,0.0,0.0,0.0,0.0,0.0,0.0,0.0,0.0,0.0,0.0,0.0,0.0
S11_D9 hbo,0.0,0.0,0.0,0.0,0.0,0.0,0.0,0.0,0.0,0.0,0.0,0.0,0.0,0.0,0.0,0.0,0.0,0.0,0.0,0.0,0.0,0.0,0.0,0.0,0.0,0.0,0.0,0.0,0.0,0.0,0.0,0.0,0.0,0.0,0.0,0.0,0.0,0.0,0.0,0.0,0.0,0.0,0.0,0.0,0.0,0.0,0.0,0.0,0.0,0.0,0.0,0.0
S11_D11 hbo,0.0,0.0,0.0,0.0,0.0,0.0,0.0,0.0,0.0,0.0,0.0,0.0,0.0,0.0,0.0,0.0,0.0,0.0,0.0,0.0,0.0,0.0,0.0,0.0,0.0,0.0,0.0,0.0,0.0,0.0,0.0,0.0,0.0,0.0,0.0,0.0,0.0,0.0,0.0,0.0,0.0,0.0,0.0,0.0,0.0,0.0,0.0,0.0,0.0,0.0,0.0,0.0
S11_D12 hbo,0.0,0.0,0.0,0.0,0.0,0.0,0.0,0.0,0.0,0.0,0.0,0.0,0.0,0.0,0.0,0.0,0.0,0.0,0.0,0.0,0.0,0.0,0.0,0.0,0.0,0.0,0.0,0.0,0.0,0.0,0.0,0.0,0.0,0.0,0.0,0.0,0.0,0.0,0.0,0.0,0.0,0.0,0.0,0.0,0.0,0.0,0.0,0.0,0.0,0.0,0.0,0.0
S11_D13 hbo,0.0,0.0,0.0,0.0,0.0,0.0,0.0,0.0,0.0,0.0,0.0,0.0,0.0,0.0,0.0,0.0,0.0,0.0,0.0,0.0,0.0,0.0,0.0,0.0,0.0,0.0,0.0,0.0,0.0,0.0,0.0,0.0,0.0,0.0,0.0,0.0,0.0,0.0,0.0,0.0,0.0,0.0,0.0,0.0,0.0,0.0,0.0,0.0,0.0,0.0,0.0,0.0
S12_D10 hbo,0.0,0.0,0.0,0.0,0.0,0.0,0.0,0.0,0.0,0.0,0.0,0.0,0.0,0.0,0.0,0.0,0.0,0.0,0.0,0.0,0.0,0.0,0.0,0.0,0.0,0.0,0.0,0.0,0.0,0.0,0.0,0.0,0.0,0.0,0.0,0.0,0.0,0.0,0.0,0.0,0.0,0.0,0.0,0.0,0.0,0.0,0.0,0.0,0.0,0.0,0.0,0.0
S12_D12 hbo,0.0,0.0,0.0,0.0,0.0,0.0,0.0,0.0,0.0,0.0,0.0,0.0,0.0,0.0,0.0,0.0,0.0,0.0,0.0,0.0,0.0,0.0,0.0,0.0,0.0,0.0,0.0,0.0,0.0,0.0,0.0,0.0,0.0,0.0,0.0,0.0,0.0,0.0,0.0,0.0,0.0,0.0,0.0,0.0,0.0,0.0,0.0,0.0,0.0,0.0,0.0,0.0
S12_D14 hbo,0.0,0.0,0.0,0.0,0.0,0.0,0.0,0.0,0.0,0.0,0.0,0.0,0.0,0.0,0.0,0.0,0.0,0.0,0.0,0.0,0.0,0.0,0.0,0.0,0.0,0.0,0.0,0.0,0.0,0.0,0.0,0.0,0.0,0.0,0.0,0.0,0.0,0.0,0.0,0.0,0.0,0.0,0.0,0.0,0.0,0.0,0.0,0.0,0.0,0.0,0.0,0.0
S13_D6 hbo,0.0,0.0,0.0,0.013623978201634877,0.0,0.0,0.0,0.0,0.02997275204359673,0.02997275204359673,0.0,0.05449591280653951,0.04632152588555858,0.0,0.06267029972752043,0.035422343324250684,0.0,0.05994550408719346,0.05449591280653951,0.0326975476839237,0.05722070844686648,0.02997275204359673,0.0653950953678474,0.05994550408719346,0.06267029972752043,0.0653950953678474,0.06267029972752043,0.0,0.021798365122615803,0.0,0.0,0.0,0.0,0.0,0.0,0.0,0.0,0.0,0.0,0.06267029972752043,0.021798365122615803,0.0,0.05449591280653951,0.0,0.0,0.0,0.0,0.0,0.01634877384196185,0.0,0.0,0.0
S13_D11 hbo,0.0,0.0,0.0,0.026455026455026454,0.0,0.0,0.0,0.0,0.047619047619047616,0.047619047619047616,0.0,0.047619047619047616,0.047619047619047616,0.0,0.047619047619047616,0.047619047619047616,0.0,0.047619047619047616,0.047619047619047616,0.047619047619047616,0.047619047619047616,0.047619047619047616,0.047619047619047616,0.047619047619047616,0.047619047619047616,0.047619047619047616,0.047619047619047616,0.0,0.042328042328042326,0.0,0.0,0.0,0.0,0.0,0.0,0.0,0.0,0.0,0.0,0.047619047619047616,0.042328042328042326,0.0,0.047619047619047616,0.0,0.0,0.0,0.0,0.0,0.031746031746031744,0.0,0.0,0.0
S13_D13 hbo,0.0,0.0,0.0,0.0,0.0,0.0,0.0,0.0,0.0,0.0,0.0,0.0,0.0,0.0,0.0,0.0,0.0,0.0,0.0,0.0,0.0,0.0,0.0,0.0,0.0,0.0,0.0,0.0,0.0,0.0,0.0,0.0,0.0,0.0,0.0,0.0,0.0,0.0,0.0,0.0,0.0,0.0,0.0,0.0,0.0,0.0,0.0,0.0,0.0,0.0,0.0,0.0
S13_D15 hbo,0.0,0.0,0.0,0.014245014245014245,0.0,0.0,0.0,0.0,0.03133903133903134,0.03133903133903134,0.0,0.05698005698005698,0.04843304843304843,0.0,0.05982905982905983,0.037037037037037035,0.0,0.05982905982905983,0.05698005698005698,0.03418803418803419,0.05982905982905983,0.03133903133903134,0.05982905982905983,0.05982905982905983,0.05982905982905983,0.05982905982905983,0.05982905982905983,0.0,0.022792022792022793,0.0,0.0,0.0,0.0,0.0,0.0,0.0,0.0,0.0,0.0,0.05982905982905983,0.022792022792022793,0.0,0.05698005698005698,0.0,0.0,0.0,0.0,0.0,0.017094017094017096,0.0,0.0,0.0
S14_D12 hbo,0.0,0.0,0.0,0.0,0.0,0.0,0.0,0.0,0.0,0.0,0.0,0.0,0.0,0.0,0.0,0.0,0.0,0.0,0.0,0.0,0.0,0.0,0.0,0.0,0.0,0.0,0.0,0.0,0.0,0.0,0.0,0.0,0.0,0.0,0.0,0.0,0.0,0.0,0.0,0.0,0.0,0.0,0.0,0.0,0.0,0.0,0.0,0.0,0.0,0.0,0.0,0.0
S14_D13 hbo,0.0,0.0,0.0,0.0,0.0,0.0,0.0,0.0,0.0,0.0,0.0,0.0,0.0,0.0,0.0,0.0,0.0,0.0,0.0,0.0,0.0,0.0,0.0,0.0,0.0,0.0,0.0,0.0,0.0,0.0,0.0,0.0,0.0,0.0,0.0,0.0,0.0,0.0,0.0,0.0,0.0,0.0,0.0,0.0,0.0,0.0,0.0,0.0,0.0,0.0,0.0,0.0
S14_D14 hbo,0.0,0.0,0.0,0.0,0.0,0.0,0.0,0.0,0.0,0.0,0.0,0.0,0.0,0.0,0.0,0.0,0.0,0.0,0.0,0.0,0.0,0.0,0.0,0.0,0.0,0.0,0.0,0.0,0.0,0.0,0.0,0.0,0.0,0.0,0.0,0.0,0.0,0.0,0.0,0.0,0.0,0.0,0.0,0.0,0.0,0.0,0.0,0.0,0.0,0.0,0.0,0.0
S14_D16 hbo,0.0,0.0,0.0,0.0,0.0,0.0,0.0,0.0,0.0,0.0,0.0,0.0,0.0,0.0,0.0,0.0,0.0,0.0,0.0,0.0,0.0,0.0,0.0,0.0,0.0,0.0,0.0,0.0,0.0,0.0,0.0,0.0,0.0,0.0,0.0,0.0,0.0,0.0,0.0,0.0,0.0,0.0,0.0,0.0,0.0,0.0,0.0,0.0,0.0,0.0,0.0,0.0
S15_D13 hbo,0.0,0.0,0.0,0.0,0.0,0.0,0.0,0.0,0.0,0.0,0.0,0.0,0.0,0.0,0.0,0.0,0.0,0.0,0.0,0.0,0.0,0.0,0.0,0.0,0.0,0.0,0.0,0.0,0.0,0.0,0.0,0.0,0.0,0.0,0.0,0.0,0.0,0.0,0.0,0.0,0.0,0.0,0.0,0.0,0.0,0.0,0.0,0.0,0.0,0.0,0.0,0.0
S15_D15 hbo,0.0,0.0,0.0,0.033112582781456956,0.0,0.0,0.0,0.0,0.046357615894039736,0.046357615894039736,0.0,0.046357615894039736,0.046357615894039736,0.0,0.046357615894039736,0.046357615894039736,0.0,0.046357615894039736,0.046357615894039736,0.046357615894039736,0.046357615894039736,0.046357615894039736,0.046357615894039736,0.046357615894039736,0.046357615894039736,0.046357615894039736,0.046357615894039736,0.0,0.046357615894039736,0.0,0.0,0.0,0.0,0.0,0.0,0.0,0.0,0.0,0.0,0.046357615894039736,0.046357615894039736,0.0,0.046357615894039736,0.0,0.0,0.0,0.0,0.0,0.039735099337748346,0.0,0.0,0.0
S15_D16 hbo,0.0,0.0,0.0,0.0,0.0,0.0,0.0,0.0,0.0,0.0,0.0,0.0,0.0,0.0,0.0,0.0,0.0,0.0,0.0,0.0,0.0,0.0,0.0,0.0,0.0,0.0,0.0,0.0,0.0,0.0,0.0,0.0,0.0,0.0,0.0,0.0,0.0,0.0,0.0,0.0,0.0,0.0,0.0,0.0,0.0,0.0,0.0,0.0,0.0,0.0,0.0,0.0
S16_D14 hbo,0.0,0.0,0.0,0.0,0.0,0.0,0.0,0.0,0.0,0.0,0.0,0.0,0.0,0.0,0.0,0.0,0.0,0.0,0.0,0.0,0.0,0.0,0.0,0.0,0.0,0.0,0.0,0.0,0.0,0.0,0.0,0.0,0.0,0.0,0.0,0.0,0.0,0.0,0.0,0.0,0.0,0.0,0.0,0.0,0.0,0.0,0.0,0.0,0.0,0.0,0.0,0.0
S16_D16 hbo,0.0,0.0,0.0,0.0,0.0,0.0,0.0,0.0,0.0,0.0,0.0,0.0,0.0,0.0,0.0,0.0,0.0,0.0,0.0,0.0,0.0,0.0,0.0,0.0,0.0,0.0,0.0,0.0,0.0,0.0,0.0,0.0,0.0,0.0,0.0,0.0,0.0,0.0,0.0,0.0,0.0,0.0,0.0,0.0,0.0,0.0,0.0,0.0,0.0,0.0,0.0,0.0
