,S1_D1 hbo,S1_D3 hbo,S2_D1 hbo,S2_D2 hbo,S2_D4 hbo,S3_D1 hbo,S3_D3 hbo,S3_D4 hbo,S3_D5 hbo,S4_D2 hbo,S4_D4 hbo,S4_D6 hbo,S4_D11 hbo,S5_D3 hbo,S5_D5 hbo,S5_D7 hbo,S6_D4 hbo,S6_D5 hbo,S6_D6 hbo,S6_D8 hbo,S7_D5 hbo,S7_D7 hbo,S7_D8 hbo,S8_D6 hbo,S8_D8 hbo,S8_D15 hbo,S9_D2 hbo,S9_D9 hbo,S9_D11 hbo,S10_D9 hbo,S10_D10 hbo,S10_D12 hbo,S11_D9 hbo,S11_D11 hbo,S11_D12 hbo,S11_D13 hbo,S12_D10 hbo,S12_D12 hbo,S12_D14 hbo,S13_D6 hbo,S13_D11 hbo,S13_D13 hbo,S13_D15 hbo,S14_D12 hbo,S14_D13 hbo,S14_D14 hbo,S14_D16 hbo,S15_D13 hbo,S15_D15 hbo,S15_D16 hbo,S16_D14 hbo,S16_D16 hbo
S1_D1 hbo,0.0,0.0,0.0,0.0,0.0,0.0,0.0,0.0,0.0,0.0,0.0,0.0,0.0,0.0,0.0,0.0,0.0,0.0,0.0,0.0,0.0,0.0,0.0,0.0,0.0,0.0,0.0,0.0,0.0,0.0,0.0,0.0,0.0,0.0,0.0,0.0,0.0,0.0,0.0,0.0,0.0,0.0,0.0,0.0,0.0,0.0,0.0,0.0,0.0,0.0,0.0,0.0
S1_D3 hbo,0.0,0.0,0.0,0.0,0.0,0.0,0.0,0.0,0.0,0.0,0.0,0.0,0.0,0.0,0.0,0.0,0.0,0.0,0.0,0.0,0.0,0.0,0.0,0.0,0.0,0.0,0.0,0.0,0.0,0.0,0.0,0.0,0.0,0.0,0.0,0.0,0.0,0.0,0.0,0.0,0.0,0.0,0.0,0.0,0.0,0.0,0.0,0.0,0.0,0.0,0.0,0.0
S2_D1 hbo,0.0,0.0,0.026143790849673203,0.0,0.027777777777777776,0.027777777777777776,0.0,0.0196078431372549,0.027777777777777776,0.0,0.0,0.016339869281045753,0.013071895424836602,0.017973856209150325,0.027777777777777776,0.026143790849673203,0.024509803921568627,0.027777777777777776,0.008169934640522876,0.017973856209150325,0.027777777777777776,0.024509803921568627,0.026143790849673203,0.02287581699346405,0.026143790849673203,0.027777777777777776,0.0,0.027777777777777776,0.013071895424836602,0.027777777777777776,0.0196078431372549,0.027777777777777776,0.027777777777777776,0.02287581699346405,0.027777777777777776,0.021241830065359478,0.00980392156862745,0.013071895424836602,0.021241830065359478,0.0,0.027777777777777776,0.017973856209150325,0.0,0.027777777777777776,0.024509803921568627,0.026143790849673203,0.027777777777777776,0.021241830065359478,0.026143790849673203,0.027777777777777776,0.02287581699346405,0.026143790849673203
S2_D2 hbo,0.0,0.0,0.0,0.0,0.0,0.0,0.0,0.0,0.0,0.0,0.0,0.0,0.0,0.0,0.0,0.0,0.0,0.0,0.0,0.0,0.0,0.0,0.0,0.0,0.0,0.0,0.0,0.0,0.0,0.0,0.0,0.0,0.0,0.0,0.0,0.0,0.0,0.0,0.0,0.0,0.0,0.0,0.0,0.0,0.0,0.0,0.0,0.0,0.0,0.0,0.0,0.0
S2_D4 hbo,0.0,0.0,0.02304147465437788,0.0,0.027649769585253458,0.029185867895545316,0.0,0.016897081413210446,0.02457757296466974,0.0,0.0,0.015360983102918587,0.01228878648233487,0.016897081413210446,0.02457757296466974,0.029185867895545316,0.021505376344086023,0.027649769585253458,0.01228878648233487,0.018433179723502304,0.029185867895545316,0.027649769585253458,0.026113671274961597,0.021505376344086023,0.02457757296466974,0.026113671274961597,0.0,0.026113671274961597,0.01228878648233487,0.029185867895545316,0.016897081413210446,0.029185867895545316,0.027649769585253458,0.026113671274961597,0.029185867895545316,0.018433179723502304,0.009216589861751152,0.010752688172043012,0.019969278033794162,0.0,0.02457757296466974,0.021505376344086023,0.0,0.029185867895545316,0.027649769585253458,0.029185867895545316,0.029185867895545316,0.02304147465437788,0.02304147465437788,0.027649769585253458,0.026113671274961597,0.029185867895545316
S3_D1 hbo,0.0,0.0,0.022388059701492536,0.0,0.026865671641791045,0.029850746268656716,0.0,0.016417910447761194,0.023880597014925373,0.0,0.0,0.014925373134328358,0.011940298507462687,0.016417910447761194,0.023880597014925373,0.03134328358208955,0.020895522388059702,0.026865671641791045,0.011940298507462687,0.01791044776119403,0.028358208955223882,0.026865671641791045,0.025373134328358207,0.020895522388059702,0.023880597014925373,0.025373134328358207,0.0,0.025373134328358207,0.011940298507462687,0.03134328358208955,0.016417910447761194,0.029850746268656716,0.026865671641791045,0.025373134328358207,0.03134328358208955,0.01791044776119403,0.008955223880597015,0.010447761194029851,0.019402985074626865,0.0,0.023880597014925373,0.020895522388059702,0.0,0.03134328358208955,0.028358208955223882,0.03134328358208955,0.03134328358208955,0.022388059701492536,0.022388059701492536,0.026865671641791045,0.028358208955223882,0.03134328358208955
S3_D3 hbo,0.0,0.0,0.0,0.0,0.0,0.0,0.0,0.0,0.0,0.0,0.0,0.0,0.0,0.0,0.0,0.0,0.0,0.0,0.0,0.0,0.0,0.0,0.0,0.0,0.0,0.0,0.0,0.0,0.0,0.0,0.0,0.0,0.0,0.0,0.0,0.0,0.0,0.0,0.0,0.0,0.0,0.0,0.0,0.0,0.0,0.0,0.0,0.0,0.0,0.0,0.0,0.0
S3_D4 hbo,0.0,0.0,0.02578268876611418,0.0,0.02394106813996317,0.02394106813996317,0.0,0.03130755064456722,0.02578268876611418,0.0,0.0,0.011049723756906077,0.014732965009208104,0.01289134438305709,0.027624309392265192,0.022099447513812154,0.02394106813996317,0.02578268876611418,0.001841620626151013,0.01289134438305709,0.02394106813996317,0.020257826887661142,0.022099447513812154,0.022099447513812154,0.022099447513812154,0.029465930018416207,0.0,0.03314917127071823,0.014732965009208104,0.03130755064456722,0.03130755064456722,0.03314917127071823,0.03314917127071823,0.01841620626151013,0.03314917127071823,0.029465930018416207,0.016574585635359115,0.02394106813996317,0.01841620626151013,0.0,0.02578268876611418,0.01289134438305709,0.0,0.03314917127071823,0.020257826887661142,0.022099447513812154,0.02578268876611418,0.016574585635359115,0.03130755064456722,0.03130755064456722,0.01841620626151013,0.022099447513812154
S3_D5 hbo,0.0,0.0,0.025078369905956112,0.0,0.02821316614420063,0.02821316614420063,0.0,0.018808777429467086,0.02664576802507837,0.0,0.0,0.01567398119122257,0.012539184952978056,0.017241379310344827,0.02664576802507837,0.02664576802507837,0.023510971786833857,0.02821316614420063,0.009404388714733543,0.018808777429467086,0.02821316614420063,0.025078369905956112,0.02664576802507837,0.0219435736677116,0.025078369905956112,0.02821316614420063,0.0,0.02821316614420063,0.012539184952978056,0.02821316614420063,0.018808777429467086,0.02821316614420063,0.02821316614420063,0.023510971786833857,0.02821316614420063,0.02037617554858934,0.0109717868338558,0.012539184952978056,0.02037617554858934,0.0,0.02664576802507837,0.018808777429467086,0.0,0.02821316614420063,0.025078369905956112,0.02664576802507837,0.02821316614420063,0.0219435736677116,0.025078369905956112,0.02821316614420063,0.023510971786833857,0.02664576802507837
S4_D2 hbo,0.0,0.0,0.0,0.0,0.0,0.0,0.0,0.0,0.0,0.0,0.0,0.0,0.0,0.0,0.0,0.0,0.0,0.0,0.0,0.0,0.0,0.0,0.0,0.0,0.0,0.0,0.0,0.0,0.0,0.0,0.0,0.0,0.0,0.0,0.0,0.0,0.0,0.0,0.0,0.0,0.0,0.0,0.0,0.0,0.0,0.0,0.0,0.0,0.0,0.0,0.0,0.0
S4_D4 hbo,0.0,0.0,0.0,0.0,0.0,0.0,0.0,0.0,0.0,0.0,0.0,0.0,0.0,0.0,0.0,0.0,0.0,0.0,0.0,0.0,0.0,0.0,0.0,0.0,0.0,0.0,0.0,0.0,0.0,0.0,0.0,0.0,0.0,0.0,0.0,0.0,0.0,0.0,0.0,0.0,0.0,0.0,0.0,0.0,0.0,0.0,0.0,0.0,0.0,0.0,0.0,0.0
S4_D6 hbo,0.0,0.0,0.022408963585434174,0.0,0.028011204481792718,0.028011204481792718,0.0,0.011204481792717087,0.025210084033613446,0.0,0.0,0.025210084033613446,0.008403361344537815,0.025210084033613446,0.025210084033613446,0.028011204481792718,0.0196078431372549,0.028011204481792718,0.01680672268907563,0.028011204481792718,0.028011204481792718,0.028011204481792718,0.028011204481792718,0.0196078431372549,0.025210084033613446,0.028011204481792718,0.0,0.028011204481792718,0.0028011204481792717,0.028011204481792718,0.011204481792717087,0.028011204481792718,0.028011204481792718,0.028011204481792718,0.028011204481792718,0.014005602240896359,0.0056022408963585435,0.0,0.022408963585434174,0.0,0.025210084033613446,0.028011204481792718,0.0,0.028011204481792718,0.028011204481792718,0.028011204481792718,0.028011204481792718,0.028011204481792718,0.022408963585434174,0.028011204481792718,0.028011204481792718,0.028011204481792718
S4_D11 hbo,0.0,0.0,0.02564102564102564,0.0,0.02564102564102564,0.02564102564102564,0.0,0.02564102564102564,0.02564102564102564,0.0,0.0,0.016025641025641024,0.022435897435897436,0.019230769230769232,0.02564102564102564,0.02564102564102564,0.02564102564102564,0.02564102564102564,0.0,0.019230769230769232,0.02564102564102564,0.02564102564102564,0.02564102564102564,0.02564102564102564,0.02564102564102564,0.02564102564102564,0.0,0.02564102564102564,0.016025641025641024,0.02564102564102564,0.02564102564102564,0.02564102564102564,0.02564102564102564,0.02564102564102564,0.02564102564102564,0.02564102564102564,0.003205128205128205,0.01282051282051282,0.02564102564102564,0.0,0.02564102564102564,0.019230769230769232,0.0,0.02564102564102564,0.02564102564102564,0.02564102564102564,0.02564102564102564,0.02564102564102564,0.02564102564102564,0.02564102564102564,0.02564102564102564,0.02564102564102564
S5_D3 hbo,0.0,0.0,0.022613065326633167,0.0,0.02763819095477387,0.02763819095477387,0.0,0.01256281407035176,0.02512562814070352,0.0,0.0,0.02512562814070352,0.010050251256281407,0.02512562814070352,0.02512562814070352,0.02763819095477387,0.020100502512562814,0.02763819095477387,0.01507537688442211,0.02763819095477387,0.02763819095477387,0.02763819095477387,0.02763819095477387,0.020100502512562814,0.02512562814070352,0.02763819095477387,0.0,0.02763819095477387,0.005025125628140704,0.02763819095477387,0.01256281407035176,0.02763819095477387,0.02763819095477387,0.02763819095477387,0.02763819095477387,0.01507537688442211,0.005025125628140704,0.002512562814070352,0.022613065326633167,0.0,0.02512562814070352,0.02763819095477387,0.0,0.02763819095477387,0.02763819095477387,0.02763819095477387,0.02763819095477387,0.02763819095477387,0.022613065326633167,0.02763819095477387,0.02763819095477387,0.02763819095477387
S5_D5 hbo,0.0,0.0,0.025835866261398176,0.0,0.02735562310030395,0.02735562310030395,0.0,0.019756838905775075,0.02735562310030395,0.0,0.0,0.015197568389057751,0.0121580547112462,0.016717325227963525,0.02735562310030395,0.025835866261398176,0.022796352583586626,0.028875379939209727,0.00911854103343465,0.0182370820668693,0.02735562310030395,0.0243161094224924,0.025835866261398176,0.02127659574468085,0.0243161094224924,0.028875379939209727,0.0,0.028875379939209727,0.0121580547112462,0.028875379939209727,0.019756838905775075,0.028875379939209727,0.028875379939209727,0.022796352583586626,0.028875379939209727,0.02127659574468085,0.0121580547112462,0.013677811550151976,0.019756838905775075,0.0,0.02735562310030395,0.0182370820668693,0.0,0.028875379939209727,0.0243161094224924,0.025835866261398176,0.028875379939209727,0.02127659574468085,0.025835866261398176,0.028875379939209727,0.022796352583586626,0.025835866261398176
S5_D7 hbo,0.0,0.0,0.02147239263803681,0.0,0.02607361963190184,0.029141104294478526,0.0,0.015337423312883436,0.023006134969325152,0.0,0.0,0.015337423312883436,0.012269938650306749,0.01687116564417178,0.023006134969325152,0.032208588957055216,0.019938650306748466,0.02607361963190184,0.012269938650306749,0.018404907975460124,0.027607361963190184,0.027607361963190184,0.024539877300613498,0.019938650306748466,0.023006134969325152,0.024539877300613498,0.0,0.024539877300613498,0.010736196319018405,0.032208588957055216,0.015337423312883436,0.029141104294478526,0.02607361963190184,0.02607361963190184,0.032208588957055216,0.01687116564417178,0.007668711656441718,0.009202453987730062,0.019938650306748466,0.0,0.023006134969325152,0.02147239263803681,0.0,0.03374233128834356,0.029141104294478526,0.03374233128834356,0.03374233128834356,0.023006134969325152,0.02147239263803681,0.02607361963190184,0.032208588957055216,0.03374233128834356
S6_D4 hbo,0.0,0.0,0.02697841726618705,0.0,0.02697841726618705,0.02697841726618705,0.0,0.019784172661870502,0.02697841726618705,0.0,0.0,0.01618705035971223,0.014388489208633094,0.017985611510791366,0.02697841726618705,0.02697841726618705,0.025179856115107913,0.02697841726618705,0.007194244604316547,0.017985611510791366,0.02697841726618705,0.025179856115107913,0.02697841726618705,0.025179856115107913,0.02697841726618705,0.02697841726618705,0.0,0.02697841726618705,0.014388489208633094,0.02697841726618705,0.019784172661870502,0.02697841726618705,0.02697841726618705,0.023381294964028777,0.02697841726618705,0.02158273381294964,0.007194244604316547,0.012589928057553957,0.023381294964028777,0.0,0.02697841726618705,0.017985611510791366,0.0,0.02697841726618705,0.025179856115107913,0.02697841726618705,0.02697841726618705,0.02158273381294964,0.02697841726618705,0.02697841726618705,0.023381294964028777,0.02697841726618705
S6_D5 hbo,0.0,0.0,0.023703703703703703,0.0,0.028148148148148148,0.02962962962962963,0.0,0.017777777777777778,0.025185185185185185,0.0,0.0,0.014814814814814815,0.011851851851851851,0.016296296296296295,0.025185185185185185,0.028148148148148148,0.022222222222222223,0.028148148148148148,0.011851851851851851,0.017777777777777778,0.02962962962962963,0.02666666666666667,0.025185185185185185,0.02074074074074074,0.023703703703703703,0.02666666666666667,0.0,0.02666666666666667,0.011851851851851851,0.02962962962962963,0.017777777777777778,0.02962962962962963,0.028148148148148148,0.025185185185185185,0.02962962962962963,0.01925925925925926,0.01037037037037037,0.011851851851851851,0.01925925925925926,0.0,0.025185185185185185,0.02074074074074074,0.0,0.02962962962962963,0.02666666666666667,0.028148148148148148,0.02962962962962963,0.022222222222222223,0.023703703703703703,0.028148148148148148,0.025185185185185185,0.028148148148148148
S6_D6 hbo,0.0,0.0,0.014150943396226415,0.0,0.02830188679245283,0.03773584905660377,0.0,0.0,0.018867924528301886,0.0,0.0,0.018867924528301886,0.0,0.018867924528301886,0.018867924528301886,0.03773584905660377,0.009433962264150943,0.02830188679245283,0.0330188679245283,0.02358490566037736,0.0330188679245283,0.0330188679245283,0.02358490566037736,0.009433962264150943,0.018867924528301886,0.02358490566037736,0.0,0.02358490566037736,0.0,0.03773584905660377,0.0,0.03773584905660377,0.02830188679245283,0.0330188679245283,0.03773584905660377,0.0,0.009433962264150943,0.0,0.014150943396226415,0.0,0.018867924528301886,0.0330188679245283,0.0,0.03773584905660377,0.03773584905660377,0.03773584905660377,0.03773584905660377,0.02830188679245283,0.014150943396226415,0.02830188679245283,0.03773584905660377,0.03773584905660377
S6_D8 hbo,0.0,0.0,0.021479713603818614,0.0,0.028639618138424822,0.028639618138424822,0.0,0.011933174224343675,0.02386634844868735,0.0,0.0,0.02386634844868735,0.00954653937947494,0.02386634844868735,0.02386634844868735,0.028639618138424822,0.01909307875894988,0.028639618138424822,0.016706443914081145,0.026252983293556086,0.028639618138424822,0.028639618138424822,0.026252983293556086,0.01909307875894988,0.02386634844868735,0.026252983293556086,0.0,0.026252983293556086,0.00477326968973747,0.028639618138424822,0.011933174224343675,0.028639618138424822,0.028639618138424822,0.028639618138424822,0.028639618138424822,0.014319809069212411,0.00477326968973747,0.002386634844868735,0.021479713603818614,0.0,0.02386634844868735,0.028639618138424822,0.0,0.028639618138424822,0.028639618138424822,0.028639618138424822,0.028639618138424822,0.028639618138424822,0.021479713603818614,0.028639618138424822,0.028639618138424822,0.028639618138424822
S7_D5 hbo,0.0,0.0,0.022658610271903322,0.0,0.027190332326283987,0.030211480362537766,0.0,0.01661631419939577,0.02416918429003021,0.0,0.0,0.015105740181268883,0.012084592145015106,0.01661631419939577,0.02416918429003021,0.030211480362537766,0.021148036253776436,0.027190332326283987,0.012084592145015106,0.01812688821752266,0.028700906344410877,0.027190332326283987,0.0256797583081571,0.021148036253776436,0.02416918429003021,0.0256797583081571,0.0,0.0256797583081571,0.012084592145015106,0.030211480362537766,0.01661631419939577,0.030211480362537766,0.027190332326283987,0.0256797583081571,0.030211480362537766,0.01812688821752266,0.00906344410876133,0.010574018126888218,0.019637462235649546,0.0,0.02416918429003021,0.021148036253776436,0.0,0.030211480362537766,0.028700906344410877,0.030211480362537766,0.030211480362537766,0.022658610271903322,0.022658610271903322,0.027190332326283987,0.027190332326283987,0.030211480362537766
S7_D7 hbo,0.0,0.0,0.021739130434782608,0.0,0.026755852842809364,0.030100334448160536,0.0,0.015050167224080268,0.023411371237458192,0.0,0.0,0.016722408026755852,0.013377926421404682,0.01839464882943144,0.023411371237458192,0.030100334448160536,0.020066889632107024,0.026755852842809364,0.013377926421404682,0.020066889632107024,0.028428093645484948,0.028428093645484948,0.02508361204013378,0.020066889632107024,0.023411371237458192,0.02508361204013378,0.0,0.02508361204013378,0.010033444816053512,0.030100334448160536,0.015050167224080268,0.030100334448160536,0.026755852842809364,0.028428093645484948,0.030100334448160536,0.016722408026755852,0.006688963210702341,0.008361204013377926,0.021739130434782608,0.0,0.023411371237458192,0.023411371237458192,0.0,0.030100334448160536,0.030100334448160536,0.030100334448160536,0.030100334448160536,0.02508361204013378,0.021739130434782608,0.026755852842809364,0.030100334448160536,0.030100334448160536
S7_D8 hbo,0.0,0.0,0.023178807947019868,0.0,0.028145695364238412,0.028145695364238412,0.0,0.016556291390728478,0.024834437086092714,0.0,0.0,0.016556291390728478,0.013245033112582781,0.018211920529801324,0.024834437086092714,0.028145695364238412,0.02152317880794702,0.028145695364238412,0.011589403973509934,0.019867549668874173,0.028145695364238412,0.028145695364238412,0.026490066225165563,0.02152317880794702,0.024834437086092714,0.026490066225165563,0.0,0.026490066225165563,0.011589403973509934,0.028145695364238412,0.016556291390728478,0.028145695364238412,0.028145695364238412,0.026490066225165563,0.028145695364238412,0.018211920529801324,0.008278145695364239,0.009933774834437087,0.02152317880794702,0.0,0.024834437086092714,0.02152317880794702,0.0,0.028145695364238412,0.028145695364238412,0.028145695364238412,0.028145695364238412,0.024834437086092714,0.023178807947019868,0.028145695364238412,0.026490066225165563,0.028145695364238412
S8_D6 hbo,0.0,0.0,0.02666666666666667,0.0,0.02666666666666667,0.02666666666666667,0.0,0.01904761904761905,0.02666666666666667,0.0,0.0,0.017142857142857144,0.015238095238095238,0.01904761904761905,0.02666666666666667,0.02666666666666667,0.024761904761904763,0.02666666666666667,0.007619047619047619,0.01904761904761905,0.02666666666666667,0.02666666666666667,0.02666666666666667,0.024761904761904763,0.02666666666666667,0.02666666666666667,0.0,0.02666666666666667,0.013333333333333334,0.02666666666666667,0.01904761904761905,0.02666666666666667,0.02666666666666667,0.024761904761904763,0.02666666666666667,0.02095238095238095,0.005714285714285714,0.011428571428571429,0.024761904761904763,0.0,0.02666666666666667,0.01904761904761905,0.0,0.02666666666666667,0.02666666666666667,0.02666666666666667,0.02666666666666667,0.022857142857142857,0.02666666666666667,0.02666666666666667,0.024761904761904763,0.02666666666666667
S8_D8 hbo,0.0,0.0,0.024013722126929673,0.0,0.0274442538593482,0.0274442538593482,0.0,0.017152658662092625,0.025728987993138937,0.0,0.0,0.017152658662092625,0.0137221269296741,0.018867924528301886,0.025728987993138937,0.0274442538593482,0.022298456260720412,0.0274442538593482,0.010291595197255575,0.02058319039451115,0.0274442538593482,0.0274442538593482,0.0274442538593482,0.022298456260720412,0.025728987993138937,0.0274442538593482,0.0,0.0274442538593482,0.012006861063464836,0.0274442538593482,0.017152658662092625,0.0274442538593482,0.0274442538593482,0.025728987993138937,0.0274442538593482,0.018867924528301886,0.008576329331046312,0.010291595197255575,0.022298456260720412,0.0,0.025728987993138937,0.02058319039451115,0.0,0.0274442538593482,0.0274442538593482,0.0274442538593482,0.0274442538593482,0.024013722126929673,0.024013722126929673,0.0274442538593482,0.025728987993138937,0.0274442538593482
S8_D15 hbo,0.0,0.0,0.024495677233429394,0.0,0.027377521613832854,0.027377521613832854,0.0,0.020172910662824207,0.025936599423631124,0.0,0.0,0.01440922190201729,0.011527377521613832,0.01585014409221902,0.027377521613832854,0.025936599423631124,0.021613832853025938,0.02881844380403458,0.010086455331412104,0.01729106628242075,0.027377521613832854,0.024495677233429394,0.024495677233429394,0.020172910662824207,0.023054755043227664,0.02881844380403458,0.0,0.02881844380403458,0.011527377521613832,0.03025936599423631,0.020172910662824207,0.03025936599423631,0.03025936599423631,0.023054755043227664,0.03025936599423631,0.021613832853025938,0.012968299711815562,0.01440922190201729,0.018731988472622477,0.0,0.025936599423631124,0.018731988472622477,0.0,0.03025936599423631,0.024495677233429394,0.025936599423631124,0.02881844380403458,0.021613832853025938,0.025936599423631124,0.03025936599423631,0.023054755043227664,0.025936599423631124
S9_D2 hbo,0.0,0.0,0.0,0.0,0.0,0.0,0.0,0.0,0.0,0.0,0.0,0.0,0.0,0.0,0.0,0.0,0.0,0.0,0.0,0.0,0.0,0.0,0.0,0.0,0.0,0.0,0.0,0.0,0.0,0.0,0.0,0.0,0.0,0.0,0.0,0.0,0.0,0.0,0.0,0.0,0.0,0.0,0.0,0.0,0.0,0.0,0.0,0.0,0.0,0.0,0.0,0.0
S9_D9 hbo,0.0,0.0,0.02361111111111111,0.0,0.02638888888888889,0.02638888888888889,0.0,0.022222222222222223,0.025,0.0,0.0,0.013888888888888888,0.011111111111111112,0.015277777777777777,0.02638888888888889,0.025,0.020833333333333332,0.027777777777777776,0.009722222222222222,0.016666666666666666,0.02638888888888889,0.02361111111111111,0.02361111111111111,0.019444444444444445,0.022222222222222223,0.029166666666666667,0.0,0.030555555555555555,0.011111111111111112,0.03194444444444444,0.022222222222222223,0.03194444444444444,0.03194444444444444,0.022222222222222223,0.03194444444444444,0.022222222222222223,0.015277777777777777,0.016666666666666666,0.018055555555555554,0.0,0.025,0.018055555555555554,0.0,0.03194444444444444,0.02361111111111111,0.025,0.027777777777777776,0.020833333333333332,0.027777777777777776,0.03194444444444444,0.022222222222222223,0.025
S9_D11 hbo,0.0,0.0,0.02622950819672131,0.0,0.02622950819672131,0.02622950819672131,0.0,0.02622950819672131,0.02622950819672131,0.0,0.0,0.009836065573770493,0.022950819672131147,0.013114754098360656,0.02622950819672131,0.02622950819672131,0.02622950819672131,0.02622950819672131,0.0,0.013114754098360656,0.02622950819672131,0.02622950819672131,0.02622950819672131,0.02622950819672131,0.02622950819672131,0.02622950819672131,0.0,0.02622950819672131,0.022950819672131147,0.02622950819672131,0.02622950819672131,0.02622950819672131,0.02622950819672131,0.022950819672131147,0.02622950819672131,0.02622950819672131,0.009836065573770493,0.019672131147540985,0.022950819672131147,0.0,0.02622950819672131,0.013114754098360656,0.0,0.02622950819672131,0.02622950819672131,0.02622950819672131,0.02622950819672131,0.019672131147540985,0.02622950819672131,0.02622950819672131,0.022950819672131147,0.02622950819672131
S10_D9 hbo,0.0,0.0,0.022486772486772486,0.0,0.02513227513227513,0.027777777777777776,0.0,0.01984126984126984,0.023809523809523808,0.0,0.0,0.013227513227513227,0.010582010582010581,0.01455026455026455,0.02513227513227513,0.0291005291005291,0.01984126984126984,0.026455026455026454,0.010582010582010581,0.015873015873015872,0.026455026455026454,0.023809523809523808,0.022486772486772486,0.018518518518518517,0.021164021164021163,0.027777777777777776,0.0,0.027777777777777776,0.010582010582010581,0.03439153439153439,0.01984126984126984,0.031746031746031744,0.0291005291005291,0.022486772486772486,0.03439153439153439,0.021164021164021163,0.013227513227513227,0.01455026455026455,0.017195767195767195,0.0,0.023809523809523808,0.018518518518518517,0.0,0.03571428571428571,0.02513227513227513,0.03042328042328042,0.03306878306878307,0.01984126984126984,0.02513227513227513,0.0291005291005291,0.027777777777777776,0.03042328042328042
S10_D10 hbo,0.0,0.0,0.02486678507992895,0.0,0.023090586145648313,0.023090586145648313,0.0,0.03197158081705151,0.02486678507992895,0.0,0.0,0.010657193605683837,0.014209591474245116,0.012433392539964476,0.02664298401420959,0.021314387211367674,0.023090586145648313,0.02486678507992895,0.0017761989342806395,0.012433392539964476,0.023090586145648313,0.019538188277087035,0.021314387211367674,0.021314387211367674,0.021314387211367674,0.028419182948490232,0.0,0.03197158081705151,0.014209591474245116,0.03019538188277087,0.037300177619893425,0.03907637655417407,0.037300177619893425,0.017761989342806393,0.03197158081705151,0.028419182948490232,0.015985790408525755,0.03019538188277087,0.017761989342806393,0.0,0.02486678507992895,0.012433392539964476,0.0,0.03907637655417407,0.019538188277087035,0.021314387211367674,0.02486678507992895,0.015985790408525755,0.03019538188277087,0.03019538188277087,0.017761989342806393,0.021314387211367674
S10_D12 hbo,0.0,0.0,0.021822849807445442,0.0,0.024390243902439025,0.026957637997432605,0.0,0.023106546854942234,0.023106546854942234,0.0,0.0,0.012836970474967908,0.010269576379974325,0.014120667522464698,0.024390243902439025,0.026957637997432605,0.019255455712451863,0.025673940949935817,0.010269576379974325,0.01540436456996149,0.025673940949935817,0.023106546854942234,0.021822849807445442,0.01797175866495507,0.02053915275994865,0.026957637997432605,0.0,0.029525032092426188,0.010269576379974325,0.03337612323491656,0.025673940949935817,0.037227214377406934,0.03465982028241335,0.021822849807445442,0.03465982028241335,0.02053915275994865,0.014120667522464698,0.02053915275994865,0.01668806161745828,0.0,0.023106546854942234,0.01797175866495507,0.0,0.038510911424903725,0.024390243902439025,0.026957637997432605,0.029525032092426188,0.019255455712451863,0.025673940949935817,0.029525032092426188,0.024390243902439025,0.026957637997432605
S11_D9 hbo,0.0,0.0,0.022516556291390728,0.0,0.025165562913907286,0.026490066225165563,0.0,0.02384105960264901,0.02384105960264901,0.0,0.0,0.013245033112582781,0.010596026490066225,0.01456953642384106,0.025165562913907286,0.025165562913907286,0.019867549668874173,0.026490066225165563,0.010596026490066225,0.015894039735099338,0.026490066225165563,0.02384105960264901,0.022516556291390728,0.018543046357615896,0.02119205298013245,0.02781456953642384,0.0,0.030463576158940398,0.010596026490066225,0.031788079470198675,0.025165562913907286,0.03576158940397351,0.03443708609271523,0.022516556291390728,0.033112582781456956,0.02119205298013245,0.01456953642384106,0.019867549668874173,0.017218543046357615,0.0,0.02384105960264901,0.018543046357615896,0.0,0.03576158940397351,0.02384105960264901,0.025165562913907286,0.02781456953642384,0.019867549668874173,0.026490066225165563,0.030463576158940398,0.022516556291390728,0.025165562913907286
S11_D11 hbo,0.0,0.0,0.0213903743315508,0.0,0.026737967914438502,0.030303030303030304,0.0,0.0142602495543672,0.023172905525846704,0.0,0.0,0.017825311942959002,0.012477718360071301,0.0196078431372549,0.023172905525846704,0.030303030303030304,0.0196078431372549,0.026737967914438502,0.0142602495543672,0.0213903743315508,0.0285204991087344,0.0285204991087344,0.024955436720142603,0.0196078431372549,0.023172905525846704,0.024955436720142603,0.0,0.024955436720142603,0.008912655971479501,0.030303030303030304,0.0142602495543672,0.030303030303030304,0.026737967914438502,0.0285204991087344,0.030303030303030304,0.016042780748663103,0.0053475935828877,0.0071301247771836,0.0213903743315508,0.0,0.023172905525846704,0.024955436720142603,0.0,0.030303030303030304,0.030303030303030304,0.030303030303030304,0.030303030303030304,0.026737967914438502,0.0213903743315508,0.026737967914438502,0.030303030303030304,0.030303030303030304
S11_D12 hbo,0.0,0.0,0.022135416666666668,0.0,0.024739583333333332,0.02734375,0.0,0.020833333333333332,0.0234375,0.0,0.0,0.013020833333333334,0.010416666666666666,0.014322916666666666,0.024739583333333332,0.028645833333333332,0.01953125,0.026041666666666668,0.010416666666666666,0.015625,0.026041666666666668,0.0234375,0.022135416666666668,0.018229166666666668,0.020833333333333332,0.02734375,0.0,0.028645833333333332,0.010416666666666666,0.03515625,0.020833333333333332,0.032552083333333336,0.029947916666666668,0.022135416666666668,0.03515625,0.020833333333333332,0.014322916666666666,0.015625,0.016927083333333332,0.0,0.0234375,0.018229166666666668,0.0,0.036458333333333336,0.024739583333333332,0.029947916666666668,0.032552083333333336,0.01953125,0.026041666666666668,0.029947916666666668,0.02734375,0.029947916666666668
S11_D13 hbo,0.0,0.0,0.027522935779816515,0.0,0.025688073394495414,0.025688073394495414,0.0,0.025688073394495414,0.027522935779816515,0.0,0.0,0.012844036697247707,0.014678899082568808,0.014678899082568808,0.029357798165137616,0.023853211009174313,0.025688073394495414,0.027522935779816515,0.003669724770642202,0.014678899082568808,0.025688073394495414,0.022018348623853212,0.023853211009174313,0.023853211009174313,0.023853211009174313,0.029357798165137616,0.0,0.029357798165137616,0.014678899082568808,0.029357798165137616,0.025688073394495414,0.029357798165137616,0.029357798165137616,0.02018348623853211,0.029357798165137616,0.027522935779816515,0.012844036697247707,0.01834862385321101,0.02018348623853211,0.0,0.027522935779816515,0.014678899082568808,0.0,0.029357798165137616,0.022018348623853212,0.023853211009174313,0.027522935779816515,0.01834862385321101,0.029357798165137616,0.029357798165137616,0.02018348623853211,0.023853211009174313
S12_D10 hbo,0.0,0.0,0.02364864864864865,0.0,0.02702702702702703,0.02702702702702703,0.0,0.030405405405405407,0.02364864864864865,0.0,0.0,0.0,0.010135135135135136,0.0,0.02702702702702703,0.02364864864864865,0.02027027027027027,0.030405405405405407,0.006756756756756757,0.0033783783783783786,0.02702702702702703,0.02027027027027027,0.02027027027027027,0.016891891891891893,0.016891891891891893,0.033783783783783786,0.0,0.033783783783783786,0.016891891891891893,0.037162162162162164,0.030405405405405407,0.037162162162162164,0.037162162162162164,0.016891891891891893,0.037162162162162164,0.030405405405405407,0.030405405405405407,0.030405405405405407,0.010135135135135136,0.0,0.02364864864864865,0.006756756756756757,0.0,0.037162162162162164,0.02027027027027027,0.02364864864864865,0.030405405405405407,0.013513513513513514,0.030405405405405407,0.037162162162162164,0.016891891891891893,0.02364864864864865
S12_D12 hbo,0.0,0.0,0.024271844660194174,0.0,0.021844660194174758,0.021844660194174758,0.0,0.03640776699029126,0.024271844660194174,0.0,0.0,0.0048543689320388345,0.014563106796116505,0.007281553398058253,0.02669902912621359,0.019417475728155338,0.021844660194174758,0.024271844660194174,0.0,0.007281553398058253,0.021844660194174758,0.01699029126213592,0.019417475728155338,0.019417475728155338,0.019417475728155338,0.02912621359223301,0.0,0.03398058252427184,0.019417475728155338,0.03155339805825243,0.04611650485436893,0.043689320388349516,0.0412621359223301,0.014563106796116505,0.03398058252427184,0.02912621359223301,0.021844660194174758,0.043689320388349516,0.014563106796116505,0.0,0.024271844660194174,0.007281553398058253,0.0,0.043689320388349516,0.01699029126213592,0.019417475728155338,0.024271844660194174,0.012135922330097087,0.03155339805825243,0.03155339805825243,0.014563106796116505,0.019417475728155338
S12_D14 hbo,0.0,0.0,0.024640657084188913,0.0,0.026694045174537988,0.026694045174537988,0.0,0.01642710472279261,0.026694045174537988,0.0,0.0,0.02053388090349076,0.014373716632443531,0.022587268993839837,0.026694045174537988,0.026694045174537988,0.022587268993839837,0.026694045174537988,0.01026694045174538,0.022587268993839837,0.026694045174537988,0.026694045174537988,0.026694045174537988,0.022587268993839837,0.026694045174537988,0.026694045174537988,0.0,0.026694045174537988,0.01026694045174538,0.026694045174537988,0.01642710472279261,0.026694045174537988,0.026694045174537988,0.026694045174537988,0.026694045174537988,0.018480492813141684,0.004106776180698152,0.008213552361396304,0.024640657084188913,0.0,0.026694045174537988,0.022587268993839837,0.0,0.026694045174537988,0.026694045174537988,0.026694045174537988,0.026694045174537988,0.026694045174537988,0.024640657084188913,0.026694045174537988,0.026694045174537988,0.026694045174537988
S13_D6 hbo,0.0,0.0,0.0,0.0,0.0,0.0,0.0,0.0,0.0,0.0,0.0,0.0,0.0,0.0,0.0,0.0,0.0,0.0,0.0,0.0,0.0,0.0,0.0,0.0,0.0,0.0,0.0,0.0,0.0,0.0,0.0,0.0,0.0,0.0,0.0,0.0,0.0,0.0,0.0,0.0,0.0,0.0,0.0,0.0,0.0,0.0,0.0,0.0,0.0,0.0,0.0,0.0
S13_D11 hbo,0.0,0.0,0.025078369905956112,0.0,0.02821316614420063,0.02821316614420063,0.0,0.018808777429467086,0.02664576802507837,0.0,0.0,0.01567398119122257,0.012539184952978056,0.017241379310344827,0.02664576802507837,0.02664576802507837,0.023510971786833857,0.02821316614420063,0.009404388714733543,0.018808777429467086,0.02821316614420063,0.025078369905956112,0.02664576802507837,0.0219435736677116,0.025078369905956112,0.02821316614420063,0.0,0.02821316614420063,0.012539184952978056,0.02821316614420063,0.018808777429467086,0.02821316614420063,0.02821316614420063,0.023510971786833857,0.02821316614420063,0.02037617554858934,0.0109717868338558,0.012539184952978056,0.02037617554858934,0.0,0.02664576802507837,0.018808777429467086,0.0,0.02821316614420063,0.025078369905956112,0.02664576802507837,0.02821316614420063,0.0219435736677116,0.025078369905956112,0.02821316614420063,0.023510971786833857,0.02664576802507837
S13_D13 hbo,0.0,0.0,0.020179372197309416,0.0,0.026905829596412557,0.03139013452914798,0.0,0.011210762331838564,0.02242152466367713,0.0,0.0,0.02242152466367713,0.008968609865470852,0.02242152466367713,0.02242152466367713,0.03139013452914798,0.017937219730941704,0.026905829596412557,0.017937219730941704,0.02466367713004484,0.02914798206278027,0.02914798206278027,0.02466367713004484,0.017937219730941704,0.02242152466367713,0.02466367713004484,0.0,0.02466367713004484,0.004484304932735426,0.03139013452914798,0.011210762331838564,0.03139013452914798,0.026905829596412557,0.02914798206278027,0.03139013452914798,0.013452914798206279,0.004484304932735426,0.002242152466367713,0.020179372197309416,0.0,0.02242152466367713,0.02914798206278027,0.0,0.03139013452914798,0.03139013452914798,0.03139013452914798,0.03139013452914798,0.026905829596412557,0.020179372197309416,0.026905829596412557,0.03139013452914798,0.03139013452914798
S13_D15 hbo,0.0,0.0,0.0,0.0,0.0,0.0,0.0,0.0,0.0,0.0,0.0,0.0,0.0,0.0,0.0,0.0,0.0,0.0,0.0,0.0,0.0,0.0,0.0,0.0,0.0,0.0,0.0,0.0,0.0,0.0,0.0,0.0,0.0,0.0,0.0,0.0,0.0,0.0,0.0,0.0,0.0,0.0,0.0,0.0,0.0,0.0,0.0,0.0,0.0,0.0,0.0,0.0
S14_D12 hbo,0.0,0.0,0.02127659574468085,0.0,0.023779724655819776,0.026282853566958697,0.0,0.02252816020025031,0.02252816020025031,0.0,0.0,0.012515644555694618,0.010012515644555695,0.01376720901126408,0.023779724655819776,0.02753441802252816,0.01877346683354193,0.025031289111389236,0.010012515644555695,0.015018773466833541,0.025031289111389236,0.02252816020025031,0.02127659574468085,0.017521902377972465,0.02002503128911139,0.026282853566958697,0.0,0.028785982478097622,0.010012515644555695,0.03379224030037547,0.025031289111389236,0.03629536921151439,0.03379224030037547,0.02127659574468085,0.03504380475594493,0.02002503128911139,0.01376720901126408,0.02002503128911139,0.016270337922403004,0.0,0.02252816020025031,0.017521902377972465,0.0,0.04130162703379224,0.023779724655819776,0.03128911138923655,0.03128911138923655,0.01877346683354193,0.025031289111389236,0.028785982478097622,0.028785982478097622,0.03128911138923655
S14_D13 hbo,0.0,0.0,0.02145214521452145,0.0,0.026402640264026403,0.0297029702970297,0.0,0.01485148514851485,0.0231023102310231,0.0,0.0,0.0165016501650165,0.013201320132013201,0.018151815181518153,0.0231023102310231,0.03135313531353135,0.019801980198019802,0.026402640264026403,0.013201320132013201,0.019801980198019802,0.028052805280528052,0.028052805280528052,0.024752475247524754,0.019801980198019802,0.0231023102310231,0.024752475247524754,0.0,0.024752475247524754,0.009900990099009901,0.03135313531353135,0.01485148514851485,0.0297029702970297,0.026402640264026403,0.028052805280528052,0.03135313531353135,0.0165016501650165,0.006600660066006601,0.00825082508250825,0.02145214521452145,0.0,0.0231023102310231,0.0231023102310231,0.0,0.03135313531353135,0.0297029702970297,0.03135313531353135,0.03135313531353135,0.024752475247524754,0.02145214521452145,0.026402640264026403,0.03135313531353135,0.03135313531353135
S14_D14 hbo,0.0,0.0,0.021148036253776436,0.0,0.0256797583081571,0.028700906344410877,0.0,0.015105740181268883,0.022658610271903322,0.0,0.0,0.015105740181268883,0.012084592145015106,0.01661631419939577,0.022658610271903322,0.03172205438066465,0.019637462235649546,0.0256797583081571,0.012084592145015106,0.01812688821752266,0.027190332326283987,0.027190332326283987,0.02416918429003021,0.019637462235649546,0.022658610271903322,0.02416918429003021,0.0,0.02416918429003021,0.010574018126888218,0.03172205438066465,0.015105740181268883,0.028700906344410877,0.0256797583081571,0.0256797583081571,0.03172205438066465,0.01661631419939577,0.0075528700906344415,0.00906344410876133,0.019637462235649546,0.0,0.022658610271903322,0.021148036253776436,0.0,0.03474320241691843,0.028700906344410877,0.0377643504531722,0.03323262839879154,0.022658610271903322,0.021148036253776436,0.0256797583081571,0.03625377643504532,0.0377643504531722
S14_D16 hbo,0.0,0.0,0.02250351617440225,0.0,0.026722925457102673,0.029535864978902954,0.0,0.016877637130801686,0.02390998593530239,0.0,0.0,0.014064697609001406,0.011251758087201125,0.015471167369901548,0.02390998593530239,0.030942334739803096,0.02109704641350211,0.026722925457102673,0.011251758087201125,0.016877637130801686,0.02812939521800281,0.02531645569620253,0.02390998593530239,0.01969057665260197,0.02250351617440225,0.02531645569620253,0.0,0.02531645569620253,0.011251758087201125,0.03234880450070324,0.016877637130801686,0.029535864978902954,0.026722925457102673,0.02390998593530239,0.03234880450070324,0.01828410689170183,0.009845288326300985,0.011251758087201125,0.01828410689170183,0.0,0.02390998593530239,0.01969057665260197,0.0,0.035161744022503515,0.026722925457102673,0.03375527426160337,0.03375527426160337,0.02109704641350211,0.02250351617440225,0.026722925457102673,0.030942334739803096,0.03375527426160337
S15_D13 hbo,0.0,0.0,0.021484375,0.0,0.02734375,0.029296875,0.0,0.013671875,0.0234375,0.0,0.0,0.01953125,0.01171875,0.021484375,0.0234375,0.029296875,0.01953125,0.02734375,0.015625,0.0234375,0.029296875,0.029296875,0.025390625,0.01953125,0.0234375,0.025390625,0.0,0.025390625,0.0078125,0.029296875,0.013671875,0.029296875,0.02734375,0.029296875,0.029296875,0.015625,0.00390625,0.005859375,0.021484375,0.0,0.0234375,0.02734375,0.0,0.029296875,0.029296875,0.029296875,0.029296875,0.02734375,0.021484375,0.02734375,0.029296875,0.029296875
S15_D15 hbo,0.0,0.0,0.025718608169440244,0.0,0.025718608169440244,0.025718608169440244,0.0,0.0226928895612708,0.02723146747352496,0.0,0.0,0.015128593040847202,0.012102874432677761,0.01664145234493192,0.028744326777609682,0.024205748865355523,0.0226928895612708,0.02723146747352496,0.007564296520423601,0.01664145234493192,0.025718608169440244,0.0226928895612708,0.024205748865355523,0.02118003025718608,0.024205748865355523,0.030257186081694403,0.0,0.030257186081694403,0.012102874432677761,0.030257186081694403,0.0226928895612708,0.030257186081694403,0.030257186081694403,0.02118003025718608,0.030257186081694403,0.024205748865355523,0.01361573373676248,0.01664145234493192,0.019667170953101363,0.0,0.02723146747352496,0.01664145234493192,0.0,0.030257186081694403,0.0226928895612708,0.024205748865355523,0.02723146747352496,0.019667170953101363,0.028744326777609682,0.030257186081694403,0.02118003025718608,0.024205748865355523
S15_D16 hbo,0.0,0.0,0.023480662983425413,0.0,0.026243093922651933,0.027624309392265192,0.0,0.020718232044198894,0.024861878453038673,0.0,0.0,0.013812154696132596,0.011049723756906077,0.015193370165745856,0.026243093922651933,0.026243093922651933,0.020718232044198894,0.027624309392265192,0.011049723756906077,0.016574585635359115,0.027624309392265192,0.024861878453038673,0.023480662983425413,0.019337016574585635,0.022099447513812154,0.029005524861878452,0.0,0.029005524861878452,0.011049723756906077,0.031767955801104975,0.020718232044198894,0.031767955801104975,0.03038674033149171,0.023480662983425413,0.031767955801104975,0.022099447513812154,0.013812154696132596,0.015193370165745856,0.017955801104972375,0.0,0.024861878453038673,0.019337016574585635,0.0,0.031767955801104975,0.024861878453038673,0.026243093922651933,0.029005524861878452,0.020718232044198894,0.026243093922651933,0.03038674033149171,0.023480662983425413,0.026243093922651933
S16_D14 hbo,0.0,0.0,0.02027027027027027,0.0,0.02533783783783784,0.028716216216216218,0.0,0.013513513513513514,0.02195945945945946,0.0,0.0,0.016891891891891893,0.011824324324324325,0.018581081081081082,0.02195945945945946,0.03209459459459459,0.018581081081081082,0.02533783783783784,0.013513513513513514,0.02027027027027027,0.02702702702702703,0.02702702702702703,0.02364864864864865,0.018581081081081082,0.02195945945945946,0.02364864864864865,0.0,0.02364864864864865,0.008445945945945946,0.03209459459459459,0.013513513513513514,0.028716216216216218,0.02533783783783784,0.02702702702702703,0.03209459459459459,0.015202702702702704,0.005067567567567568,0.006756756756756757,0.02027027027027027,0.0,0.02195945945945946,0.02364864864864865,0.0,0.03547297297297297,0.028716216216216218,0.03885135135135135,0.033783783783783786,0.02533783783783784,0.02027027027027027,0.02533783783783784,0.03885135135135135,0.03885135135135135
S16_D16 hbo,0.0,0.0,0.021148036253776436,0.0,0.0256797583081571,0.028700906344410877,0.0,0.015105740181268883,0.022658610271903322,0.0,0.0,0.015105740181268883,0.012084592145015106,0.01661631419939577,0.022658610271903322,0.03172205438066465,0.019637462235649546,0.0256797583081571,0.012084592145015106,0.01812688821752266,0.027190332326283987,0.027190332326283987,0.02416918429003021,0.019637462235649546,0.022658610271903322,0.02416918429003021,0.0,0.02416918429003021,0.010574018126888218,0.03172205438066465,0.015105740181268883,0.028700906344410877,0.0256797583081571,0.0256797583081571,0.03172205438066465,0.01661631419939577,0.0075528700906344415,0.00906344410876133,0.019637462235649546,0.0,0.022658610271903322,0.021148036253776436,0.0,0.03474320241691843,0.028700906344410877,0.0377643504531722,0.03323262839879154,0.022658610271903322,0.021148036253776436,0.0256797583081571,0.03625377643504532,0.0377643504531722
