,S1_D1 hbo,S1_D3 hbo,S2_D1 hbo,S2_D2 hbo,S2_D4 hbo,S3_D1 hbo,S3_D3 hbo,S3_D4 hbo,S3_D5 hbo,S4_D2 hbo,S4_D4 hbo,S4_D6 hbo,S4_D11 hbo,S5_D3 hbo,S5_D5 hbo,S5_D7 hbo,S6_D4 hbo,S6_D5 hbo,S6_D6 hbo,S6_D8 hbo,S7_D5 hbo,S7_D7 hbo,S7_D8 hbo,S8_D6 hbo,S8_D8 hbo,S8_D15 hbo,S9_D2 hbo,S9_D9 hbo,S9_D11 hbo,S10_D9 hbo,S10_D10 hbo,S10_D12 hbo,S11_D9 hbo,S11_D11 hbo,S11_D12 hbo,S11_D13 hbo,S12_D10 hbo,S12_D12 hbo,S12_D14 hbo,S13_D6 hbo,S13_D11 hbo,S13_D13 hbo,S13_D15 hbo,S14_D12 hbo,S14_D13 hbo,S14_D14 hbo,S14_D16 hbo,S15_D13 hbo,S15_D15 hbo,S15_D16 hbo,S16_D14 hbo,S16_D16 hbo
S1_D1 hbo,0.0,0.0,0.0,0.0,0.0,0.0,0.0,0.0,0.0,0.0,0.0,0.0,0.0,0.0,0.0,0.0,0.0,0.0,0.0,0.0,0.0,0.0,0.0,0.0,0.0,0.0,0.0,0.0,0.0,0.0,0.0,0.0,0.0,0.0,0.0,0.0,0.0,0.0,0.0,0.0,0.0,0.0,0.0,0.0,0.0,0.0,0.0,0.0,0.0,0.0,0.0,0.0
S1_D3 hbo,0.0,0.05084745762711865,0.0,0.02824858757062147,0.05084745762711865,0.0,0.03389830508474576,0.03954802259887006,0.05084745762711865,0.01694915254237288,0.03389830508474576,0.0,0.05649717514124294,0.01694915254237288,0.05649717514124294,0.0,0.03389830508474576,0.01694915254237288,0.005649717514124294,0.0,0.05649717514124294,0.02824858757062147,0.05649717514124294,0.0,0.0,0.005649717514124294,0.02824858757062147,0.0,0.02824858757062147,0.0,0.0,0.0,0.01694915254237288,0.03954802259887006,0.0,0.0,0.0,0.0,0.0,0.02824858757062147,0.02824858757062147,0.0,0.022598870056497175,0.0,0.0,0.0,0.05649717514124294,0.0,0.0,0.05649717514124294,0.0,0.05649717514124294
S2_D1 hbo,0.0,0.0,0.0,0.0,0.0,0.0,0.0,0.0,0.0,0.0,0.0,0.0,0.0,0.0,0.0,0.0,0.0,0.0,0.0,0.0,0.0,0.0,0.0,0.0,0.0,0.0,0.0,0.0,0.0,0.0,0.0,0.0,0.0,0.0,0.0,0.0,0.0,0.0,0.0,0.0,0.0,0.0,0.0,0.0,0.0,0.0,0.0,0.0,0.0,0.0,0.0,0.0
S2_D2 hbo,0.0,0.043478260869565216,0.0,0.036231884057971016,0.043478260869565216,0.0,0.043478260869565216,0.043478260869565216,0.043478260869565216,0.021739130434782608,0.043478260869565216,0.0,0.043478260869565216,0.021739130434782608,0.043478260869565216,0.0,0.043478260869565216,0.021739130434782608,0.007246376811594203,0.0,0.043478260869565216,0.036231884057971016,0.043478260869565216,0.0,0.0,0.007246376811594203,0.036231884057971016,0.0,0.036231884057971016,0.0,0.0,0.0,0.021739130434782608,0.043478260869565216,0.0,0.0,0.0,0.0,0.0,0.036231884057971016,0.036231884057971016,0.0,0.028985507246376812,0.0,0.0,0.0,0.043478260869565216,0.0,0.0,0.043478260869565216,0.0,0.043478260869565216
S2_D4 hbo,0.0,0.05084745762711865,0.0,0.02824858757062147,0.05084745762711865,0.0,0.03389830508474576,0.03954802259887006,0.05084745762711865,0.01694915254237288,0.03389830508474576,0.0,0.05649717514124294,0.01694915254237288,0.05649717514124294,0.0,0.03389830508474576,0.01694915254237288,0.005649717514124294,0.0,0.05649717514124294,0.02824858757062147,0.05649717514124294,0.0,0.0,0.005649717514124294,0.02824858757062147,0.0,0.02824858757062147,0.0,0.0,0.0,0.01694915254237288,0.03954802259887006,0.0,0.0,0.0,0.0,0.0,0.02824858757062147,0.02824858757062147,0.0,0.022598870056497175,0.0,0.0,0.0,0.05649717514124294,0.0,0.0,0.05649717514124294,0.0,0.05649717514124294
S3_D1 hbo,0.0,0.03571428571428571,0.0,0.03571428571428571,0.03571428571428571,0.0,0.03571428571428571,0.03571428571428571,0.03571428571428571,0.03571428571428571,0.03571428571428571,0.0,0.03571428571428571,0.03571428571428571,0.03571428571428571,0.0,0.03571428571428571,0.03571428571428571,0.03571428571428571,0.0,0.03571428571428571,0.03571428571428571,0.03571428571428571,0.0,0.0,0.03571428571428571,0.03571428571428571,0.0,0.03571428571428571,0.0,0.0,0.0,0.03571428571428571,0.03571428571428571,0.0,0.0,0.0,0.0,0.0,0.03571428571428571,0.03571428571428571,0.0,0.03571428571428571,0.0,0.0,0.0,0.03571428571428571,0.0,0.0,0.03571428571428571,0.0,0.03571428571428571
S3_D3 hbo,0.0,0.04666666666666667,0.0,0.03333333333333333,0.04666666666666667,0.0,0.04,0.04666666666666667,0.04666666666666667,0.02,0.04,0.0,0.04666666666666667,0.02,0.04666666666666667,0.0,0.04,0.02,0.006666666666666667,0.0,0.04666666666666667,0.03333333333333333,0.04666666666666667,0.0,0.0,0.006666666666666667,0.03333333333333333,0.0,0.03333333333333333,0.0,0.0,0.0,0.02,0.04666666666666667,0.0,0.0,0.0,0.0,0.0,0.03333333333333333,0.03333333333333333,0.0,0.02666666666666667,0.0,0.0,0.0,0.04666666666666667,0.0,0.0,0.04666666666666667,0.0,0.04666666666666667
S3_D4 hbo,0.0,0.05,0.0,0.03125,0.05,0.0,0.0375,0.04375,0.05,0.01875,0.0375,0.0,0.05,0.01875,0.05,0.0,0.0375,0.01875,0.00625,0.0,0.05,0.03125,0.05,0.0,0.0,0.00625,0.03125,0.0,0.03125,0.0,0.0,0.0,0.01875,0.04375,0.0,0.0,0.0,0.0,0.0,0.03125,0.03125,0.0,0.025,0.0,0.0,0.0,0.05,0.0,0.0,0.05,0.0,0.05
S3_D5 hbo,0.0,0.05084745762711865,0.0,0.02824858757062147,0.05084745762711865,0.0,0.03389830508474576,0.03954802259887006,0.05084745762711865,0.01694915254237288,0.03389830508474576,0.0,0.05649717514124294,0.01694915254237288,0.05649717514124294,0.0,0.03389830508474576,0.01694915254237288,0.005649717514124294,0.0,0.05649717514124294,0.02824858757062147,0.05649717514124294,0.0,0.0,0.005649717514124294,0.02824858757062147,0.0,0.02824858757062147,0.0,0.0,0.0,0.01694915254237288,0.03954802259887006,0.0,0.0,0.0,0.0,0.0,0.02824858757062147,0.02824858757062147,0.0,0.022598870056497175,0.0,0.0,0.0,0.05649717514124294,0.0,0.0,0.05649717514124294,0.0,0.05649717514124294
S4_D2 hbo,0.0,0.0392156862745098,0.0,0.0392156862745098,0.0392156862745098,0.0,0.0392156862745098,0.0392156862745098,0.0392156862745098,0.029411764705882353,0.0392156862745098,0.0,0.0392156862745098,0.029411764705882353,0.0392156862745098,0.0,0.0392156862745098,0.029411764705882353,0.00980392156862745,0.0,0.0392156862745098,0.0392156862745098,0.0392156862745098,0.0,0.0,0.00980392156862745,0.0392156862745098,0.0,0.0392156862745098,0.0,0.0,0.0,0.029411764705882353,0.0392156862745098,0.0,0.0,0.0,0.0,0.0,0.0392156862745098,0.0392156862745098,0.0,0.0392156862745098,0.0,0.0,0.0,0.0392156862745098,0.0,0.0,0.0392156862745098,0.0,0.0392156862745098
S4_D4 hbo,0.0,0.04666666666666667,0.0,0.03333333333333333,0.04666666666666667,0.0,0.04,0.04666666666666667,0.04666666666666667,0.02,0.04,0.0,0.04666666666666667,0.02,0.04666666666666667,0.0,0.04,0.02,0.006666666666666667,0.0,0.04666666666666667,0.03333333333333333,0.04666666666666667,0.0,0.0,0.006666666666666667,0.03333333333333333,0.0,0.03333333333333333,0.0,0.0,0.0,0.02,0.04666666666666667,0.0,0.0,0.0,0.0,0.0,0.03333333333333333,0.03333333333333333,0.0,0.02666666666666667,0.0,0.0,0.0,0.04666666666666667,0.0,0.0,0.04666666666666667,0.0,0.04666666666666667
S4_D6 hbo,0.0,0.0,0.0,0.0,0.0,0.0,0.0,0.0,0.0,0.0,0.0,0.0,0.0,0.0,0.0,0.0,0.0,0.0,0.0,0.0,0.0,0.0,0.0,0.0,0.0,0.0,0.0,0.0,0.0,0.0,0.0,0.0,0.0,0.0,0.0,0.0,0.0,0.0,0.0,0.0,0.0,0.0,0.0,0.0,0.0,0.0,0.0,0.0,0.0,0.0,0.0,0.0
S4_D11 hbo,0.0,0.04918032786885246,0.0,0.0273224043715847,0.04918032786885246,0.0,0.03278688524590164,0.03825136612021858,0.04918032786885246,0.01639344262295082,0.03278688524590164,0.0,0.0546448087431694,0.01639344262295082,0.060109289617486336,0.0,0.03278688524590164,0.01639344262295082,0.00546448087431694,0.0,0.060109289617486336,0.0273224043715847,0.060109289617486336,0.0,0.0,0.00546448087431694,0.0273224043715847,0.0,0.0273224043715847,0.0,0.0,0.0,0.01639344262295082,0.03825136612021858,0.0,0.0,0.0,0.0,0.0,0.0273224043715847,0.0273224043715847,0.0,0.02185792349726776,0.0,0.0,0.0,0.060109289617486336,0.0,0.0,0.060109289617486336,0.0,0.060109289617486336
S5_D3 hbo,0.0,0.0392156862745098,0.0,0.0392156862745098,0.0392156862745098,0.0,0.0392156862745098,0.0392156862745098,0.0392156862745098,0.029411764705882353,0.0392156862745098,0.0,0.0392156862745098,0.029411764705882353,0.0392156862745098,0.0,0.0392156862745098,0.029411764705882353,0.00980392156862745,0.0,0.0392156862745098,0.0392156862745098,0.0392156862745098,0.0,0.0,0.00980392156862745,0.0392156862745098,0.0,0.0392156862745098,0.0,0.0,0.0,0.029411764705882353,0.0392156862745098,0.0,0.0,0.0,0.0,0.0,0.0392156862745098,0.0392156862745098,0.0,0.0392156862745098,0.0,0.0,0.0,0.0392156862745098,0.0,0.0,0.0392156862745098,0.0,0.0392156862745098
S5_D5 hbo,0.0,0.0481283422459893,0.0,0.026737967914438502,0.0481283422459893,0.0,0.03208556149732621,0.0374331550802139,0.0481283422459893,0.016042780748663103,0.03208556149732621,0.0,0.053475935828877004,0.016042780748663103,0.058823529411764705,0.0,0.03208556149732621,0.016042780748663103,0.0053475935828877,0.0,0.058823529411764705,0.026737967914438502,0.06417112299465241,0.0,0.0,0.0053475935828877,0.026737967914438502,0.0,0.026737967914438502,0.0,0.0,0.0,0.016042780748663103,0.0374331550802139,0.0,0.0,0.0,0.0,0.0,0.026737967914438502,0.026737967914438502,0.0,0.0213903743315508,0.0,0.0,0.0,0.06417112299465241,0.0,0.0,0.06417112299465241,0.0,0.06417112299465241
S5_D7 hbo,0.0,0.0,0.0,0.0,0.0,0.0,0.0,0.0,0.0,0.0,0.0,0.0,0.0,0.0,0.0,0.0,0.0,0.0,0.0,0.0,0.0,0.0,0.0,0.0,0.0,0.0,0.0,0.0,0.0,0.0,0.0,0.0,0.0,0.0,0.0,0.0,0.0,0.0,0.0,0.0,0.0,0.0,0.0,0.0,0.0,0.0,0.0,0.0,0.0,0.0,0.0,0.0
S6_D4 hbo,0.0,0.04666666666666667,0.0,0.03333333333333333,0.04666666666666667,0.0,0.04,0.04666666666666667,0.04666666666666667,0.02,0.04,0.0,0.04666666666666667,0.02,0.04666666666666667,0.0,0.04,0.02,0.006666666666666667,0.0,0.04666666666666667,0.03333333333333333,0.04666666666666667,0.0,0.0,0.006666666666666667,0.03333333333333333,0.0,0.03333333333333333,0.0,0.0,0.0,0.02,0.04666666666666667,0.0,0.0,0.0,0.0,0.0,0.03333333333333333,0.03333333333333333,0.0,0.02666666666666667,0.0,0.0,0.0,0.04666666666666667,0.0,0.0,0.04666666666666667,0.0,0.04666666666666667
S6_D5 hbo,0.0,0.0392156862745098,0.0,0.0392156862745098,0.0392156862745098,0.0,0.0392156862745098,0.0392156862745098,0.0392156862745098,0.029411764705882353,0.0392156862745098,0.0,0.0392156862745098,0.029411764705882353,0.0392156862745098,0.0,0.0392156862745098,0.029411764705882353,0.00980392156862745,0.0,0.0392156862745098,0.0392156862745098,0.0392156862745098,0.0,0.0,0.00980392156862745,0.0392156862745098,0.0,0.0392156862745098,0.0,0.0,0.0,0.029411764705882353,0.0392156862745098,0.0,0.0,0.0,0.0,0.0,0.0392156862745098,0.0392156862745098,0.0,0.0392156862745098,0.0,0.0,0.0,0.0392156862745098,0.0,0.0,0.0392156862745098,0.0,0.0392156862745098
S6_D6 hbo,0.0,0.037037037037037035,0.0,0.037037037037037035,0.037037037037037035,0.0,0.037037037037037035,0.037037037037037035,0.037037037037037035,0.037037037037037035,0.037037037037037035,0.0,0.037037037037037035,0.037037037037037035,0.037037037037037035,0.0,0.037037037037037035,0.037037037037037035,0.018518518518518517,0.0,0.037037037037037035,0.037037037037037035,0.037037037037037035,0.0,0.0,0.018518518518518517,0.037037037037037035,0.0,0.037037037037037035,0.0,0.0,0.0,0.037037037037037035,0.037037037037037035,0.0,0.0,0.0,0.0,0.0,0.037037037037037035,0.037037037037037035,0.0,0.037037037037037035,0.0,0.0,0.0,0.037037037037037035,0.0,0.0,0.037037037037037035,0.0,0.037037037037037035
S6_D8 hbo,0.0,0.0,0.0,0.0,0.0,0.0,0.0,0.0,0.0,0.0,0.0,0.0,0.0,0.0,0.0,0.0,0.0,0.0,0.0,0.0,0.0,0.0,0.0,0.0,0.0,0.0,0.0,0.0,0.0,0.0,0.0,0.0,0.0,0.0,0.0,0.0,0.0,0.0,0.0,0.0,0.0,0.0,0.0,0.0,0.0,0.0,0.0,0.0,0.0,0.0,0.0,0.0
S7_D5 hbo,0.0,0.0481283422459893,0.0,0.026737967914438502,0.0481283422459893,0.0,0.03208556149732621,0.0374331550802139,0.0481283422459893,0.016042780748663103,0.03208556149732621,0.0,0.053475935828877004,0.016042780748663103,0.058823529411764705,0.0,0.03208556149732621,0.016042780748663103,0.0053475935828877,0.0,0.058823529411764705,0.026737967914438502,0.06417112299465241,0.0,0.0,0.0053475935828877,0.026737967914438502,0.0,0.026737967914438502,0.0,0.0,0.0,0.016042780748663103,0.0374331550802139,0.0,0.0,0.0,0.0,0.0,0.026737967914438502,0.026737967914438502,0.0,0.0213903743315508,0.0,0.0,0.0,0.06417112299465241,0.0,0.0,0.06417112299465241,0.0,0.06417112299465241
S7_D7 hbo,0.0,0.043478260869565216,0.0,0.036231884057971016,0.043478260869565216,0.0,0.043478260869565216,0.043478260869565216,0.043478260869565216,0.021739130434782608,0.043478260869565216,0.0,0.043478260869565216,0.021739130434782608,0.043478260869565216,0.0,0.043478260869565216,0.021739130434782608,0.007246376811594203,0.0,0.043478260869565216,0.036231884057971016,0.043478260869565216,0.0,0.0,0.007246376811594203,0.036231884057971016,0.0,0.036231884057971016,0.0,0.0,0.0,0.021739130434782608,0.043478260869565216,0.0,0.0,0.0,0.0,0.0,0.036231884057971016,0.036231884057971016,0.0,0.028985507246376812,0.0,0.0,0.0,0.043478260869565216,0.0,0.0,0.043478260869565216,0.0,0.043478260869565216
S7_D8 hbo,0.0,0.04017857142857143,0.0,0.022321428571428572,0.04017857142857143,0.0,0.026785714285714284,0.03125,0.04017857142857143,0.013392857142857142,0.026785714285714284,0.0,0.044642857142857144,0.013392857142857142,0.049107142857142856,0.0,0.026785714285714284,0.013392857142857142,0.004464285714285714,0.0,0.049107142857142856,0.022321428571428572,0.11607142857142858,0.0,0.0,0.004464285714285714,0.022321428571428572,0.0,0.022321428571428572,0.0,0.0,0.0,0.013392857142857142,0.03125,0.0,0.0,0.0,0.0,0.0,0.022321428571428572,0.022321428571428572,0.0,0.017857142857142856,0.0,0.0,0.0,0.07589285714285714,0.0,0.0,0.10267857142857142,0.0,0.08482142857142858
S8_D6 hbo,0.0,0.0,0.0,0.0,0.0,0.0,0.0,0.0,0.0,0.0,0.0,0.0,0.0,0.0,0.0,0.0,0.0,0.0,0.0,0.0,0.0,0.0,0.0,0.0,0.0,0.0,0.0,0.0,0.0,0.0,0.0,0.0,0.0,0.0,0.0,0.0,0.0,0.0,0.0,0.0,0.0,0.0,0.0,0.0,0.0,0.0,0.0,0.0,0.0,0.0,0.0,0.0
S8_D8 hbo,0.0,0.0,0.0,0.0,0.0,0.0,0.0,0.0,0.0,0.0,0.0,0.0,0.0,0.0,0.0,0.0,0.0,0.0,0.0,0.0,0.0,0.0,0.0,0.0,0.0,0.0,0.0,0.0,0.0,0.0,0.0,0.0,0.0,0.0,0.0,0.0,0.0,0.0,0.0,0.0,0.0,0.0,0.0,0.0,0.0,0.0,0.0,0.0,0.0,0.0,0.0,0.0
S8_D15 hbo,0.0,0.037037037037037035,0.0,0.037037037037037035,0.037037037037037035,0.0,0.037037037037037035,0.037037037037037035,0.037037037037037035,0.037037037037037035,0.037037037037037035,0.0,0.037037037037037035,0.037037037037037035,0.037037037037037035,0.0,0.037037037037037035,0.037037037037037035,0.018518518518518517,0.0,0.037037037037037035,0.037037037037037035,0.037037037037037035,0.0,0.0,0.018518518518518517,0.037037037037037035,0.0,0.037037037037037035,0.0,0.0,0.0,0.037037037037037035,0.037037037037037035,0.0,0.0,0.0,0.0,0.0,0.037037037037037035,0.037037037037037035,0.0,0.037037037037037035,0.0,0.0,0.0,0.037037037037037035,0.0,0.0,0.037037037037037035,0.0,0.037037037037037035
S9_D2 hbo,0.0,0.043478260869565216,0.0,0.036231884057971016,0.043478260869565216,0.0,0.043478260869565216,0.043478260869565216,0.043478260869565216,0.021739130434782608,0.043478260869565216,0.0,0.043478260869565216,0.021739130434782608,0.043478260869565216,0.0,0.043478260869565216,0.021739130434782608,0.007246376811594203,0.0,0.043478260869565216,0.036231884057971016,0.043478260869565216,0.0,0.0,0.007246376811594203,0.036231884057971016,0.0,0.036231884057971016,0.0,0.0,0.0,0.021739130434782608,0.043478260869565216,0.0,0.0,0.0,0.0,0.0,0.036231884057971016,0.036231884057971016,0.0,0.028985507246376812,0.0,0.0,0.0,0.043478260869565216,0.0,0.0,0.043478260869565216,0.0,0.043478260869565216
S9_D9 hbo,0.0,0.0,0.0,0.0,0.0,0.0,0.0,0.0,0.0,0.0,0.0,0.0,0.0,0.0,0.0,0.0,0.0,0.0,0.0,0.0,0.0,0.0,0.0,0.0,0.0,0.0,0.0,0.0,0.0,0.0,0.0,0.0,0.0,0.0,0.0,0.0,0.0,0.0,0.0,0.0,0.0,0.0,0.0,0.0,0.0,0.0,0.0,0.0,0.0,0.0,0.0,0.0
S9_D11 hbo,0.0,0.043478260869565216,0.0,0.036231884057971016,0.043478260869565216,0.0,0.043478260869565216,0.043478260869565216,0.043478260869565216,0.021739130434782608,0.043478260869565216,0.0,0.043478260869565216,0.021739130434782608,0.043478260869565216,0.0,0.043478260869565216,0.021739130434782608,0.007246376811594203,0.0,0.043478260869565216,0.036231884057971016,0.043478260869565216,0.0,0.0,0.007246376811594203,0.036231884057971016,0.0,0.036231884057971016,0.0,0.0,0.0,0.021739130434782608,0.043478260869565216,0.0,0.0,0.0,0.0,0.0,0.036231884057971016,0.036231884057971016,0.0,0.028985507246376812,0.0,0.0,0.0,0.043478260869565216,0.0,0.0,0.043478260869565216,0.0,0.043478260869565216
S10_D9 hbo,0.0,0.0,0.0,0.0,0.0,0.0,0.0,0.0,0.0,0.0,0.0,0.0,0.0,0.0,0.0,0.0,0.0,0.0,0.0,0.0,0.0,0.0,0.0,0.0,0.0,0.0,0.0,0.0,0.0,0.0,0.0,0.0,0.0,0.0,0.0,0.0,0.0,0.0,0.0,0.0,0.0,0.0,0.0,0.0,0.0,0.0,0.0,0.0,0.0,0.0,0.0,0.0
S10_D10 hbo,0.0,0.0,0.0,0.0,0.0,0.0,0.0,0.0,0.0,0.0,0.0,0.0,0.0,0.0,0.0,0.0,0.0,0.0,0.0,0.0,0.0,0.0,0.0,0.0,0.0,0.0,0.0,0.0,0.0,0.0,0.0,0.0,0.0,0.0,0.0,0.0,0.0,0.0,0.0,0.0,0.0,0.0,0.0,0.0,0.0,0.0,0.0,0.0,0.0,0.0,0.0,0.0
S10_D12 hbo,0.0,0.0,0.0,0.0,0.0,0.0,0.0,0.0,0.0,0.0,0.0,0.0,0.0,0.0,0.0,0.0,0.0,0.0,0.0,0.0,0.0,0.0,0.0,0.0,0.0,0.0,0.0,0.0,0.0,0.0,0.0,0.0,0.0,0.0,0.0,0.0,0.0,0.0,0.0,0.0,0.0,0.0,0.0,0.0,0.0,0.0,0.0,0.0,0.0,0.0,0.0,0.0
S11_D9 hbo,0.0,0.0392156862745098,0.0,0.0392156862745098,0.0392156862745098,0.0,0.0392156862745098,0.0392156862745098,0.0392156862745098,0.029411764705882353,0.0392156862745098,0.0,0.0392156862745098,0.029411764705882353,0.0392156862745098,0.0,0.0392156862745098,0.029411764705882353,0.00980392156862745,0.0,0.0392156862745098,0.0392156862745098,0.0392156862745098,0.0,0.0,0.00980392156862745,0.0392156862745098,0.0,0.0392156862745098,0.0,0.0,0.0,0.029411764705882353,0.0392156862745098,0.0,0.0,0.0,0.0,0.0,0.0392156862745098,0.0392156862745098,0.0,0.0392156862745098,0.0,0.0,0.0,0.0392156862745098,0.0,0.0,0.0392156862745098,0.0,0.0392156862745098
S11_D11 hbo,0.0,0.05,0.0,0.03125,0.05,0.0,0.0375,0.04375,0.05,0.01875,0.0375,0.0,0.05,0.01875,0.05,0.0,0.0375,0.01875,0.00625,0.0,0.05,0.03125,0.05,0.0,0.0,0.00625,0.03125,0.0,0.03125,0.0,0.0,0.0,0.01875,0.04375,0.0,0.0,0.0,0.0,0.0,0.03125,0.03125,0.0,0.025,0.0,0.0,0.0,0.05,0.0,0.0,0.05,0.0,0.05
S11_D12 hbo,0.0,0.0,0.0,0.0,0.0,0.0,0.0,0.0,0.0,0.0,0.0,0.0,0.0,0.0,0.0,0.0,0.0,0.0,0.0,0.0,0.0,0.0,0.0,0.0,0.0,0.0,0.0,0.0,0.0,0.0,0.0,0.0,0.0,0.0,0.0,0.0,0.0,0.0,0.0,0.0,0.0,0.0,0.0,0.0,0.0,0.0,0.0,0.0,0.0,0.0,0.0,0.0
S11_D13 hbo,0.0,0.0,0.0,0.0,0.0,0.0,0.0,0.0,0.0,0.0,0.0,0.0,0.0,0.0,0.0,0.0,0.0,0.0,0.0,0.0,0.0,0.0,0.0,0.0,0.0,0.0,0.0,0.0,0.0,0.0,0.0,0.0,0.0,0.0,0.0,0.0,0.0,0.0,0.0,0.0,0.0,0.0,0.0,0.0,0.0,0.0,0.0,0.0,0.0,0.0,0.0,0.0
S12_D10 hbo,0.0,0.0,0.0,0.0,0.0,0.0,0.0,0.0,0.0,0.0,0.0,0.0,0.0,0.0,0.0,0.0,0.0,0.0,0.0,0.0,0.0,0.0,0.0,0.0,0.0,0.0,0.0,0.0,0.0,0.0,0.0,0.0,0.0,0.0,0.0,0.0,0.0,0.0,0.0,0.0,0.0,0.0,0.0,0.0,0.0,0.0,0.0,0.0,0.0,0.0,0.0,0.0
S12_D12 hbo,0.0,0.03571428571428571,0.0,0.03571428571428571,0.03571428571428571,0.0,0.03571428571428571,0.03571428571428571,0.03571428571428571,0.03571428571428571,0.03571428571428571,0.0,0.03571428571428571,0.03571428571428571,0.03571428571428571,0.0,0.03571428571428571,0.03571428571428571,0.03571428571428571,0.0,0.03571428571428571,0.03571428571428571,0.03571428571428571,0.0,0.0,0.03571428571428571,0.03571428571428571,0.0,0.03571428571428571,0.0,0.0,0.0,0.03571428571428571,0.03571428571428571,0.0,0.0,0.0,0.0,0.0,0.03571428571428571,0.03571428571428571,0.0,0.03571428571428571,0.0,0.0,0.0,0.03571428571428571,0.0,0.0,0.03571428571428571,0.0,0.03571428571428571
S12_D14 hbo,0.0,0.0,0.0,0.0,0.0,0.0,0.0,0.0,0.0,0.0,0.0,0.0,0.0,0.0,0.0,0.0,0.0,0.0,0.0,0.0,0.0,0.0,0.0,0.0,0.0,0.0,0.0,0.0,0.0,0.0,0.0,0.0,0.0,0.0,0.0,0.0,0.0,0.0,0.0,0.0,0.0,0.0,0.0,0.0,0.0,0.0,0.0,0.0,0.0,0.0,0.0,0.0
S13_D6 hbo,0.0,0.043478260869565216,0.0,0.036231884057971016,0.043478260869565216,0.0,0.043478260869565216,0.043478260869565216,0.043478260869565216,0.021739130434782608,0.043478260869565216,0.0,0.043478260869565216,0.021739130434782608,0.043478260869565216,0.0,0.043478260869565216,0.021739130434782608,0.007246376811594203,0.0,0.043478260869565216,0.036231884057971016,0.043478260869565216,0.0,0.0,0.007246376811594203,0.036231884057971016,0.0,0.036231884057971016,0.0,0.0,0.0,0.021739130434782608,0.043478260869565216,0.0,0.0,0.0,0.0,0.0,0.036231884057971016,0.036231884057971016,0.0,0.028985507246376812,0.0,0.0,0.0,0.043478260869565216,0.0,0.0,0.043478260869565216,0.0,0.043478260869565216
S13_D11 hbo,0.0,0.043478260869565216,0.0,0.036231884057971016,0.043478260869565216,0.0,0.043478260869565216,0.043478260869565216,0.043478260869565216,0.021739130434782608,0.043478260869565216,0.0,0.043478260869565216,0.021739130434782608,0.043478260869565216,0.0,0.043478260869565216,0.021739130434782608,0.007246376811594203,0.0,0.043478260869565216,0.036231884057971016,0.043478260869565216,0.0,0.0,0.007246376811594203,0.036231884057971016,0.0,0.036231884057971016,0.0,0.0,0.0,0.021739130434782608,0.043478260869565216,0.0,0.0,0.0,0.0,0.0,0.036231884057971016,0.036231884057971016,0.0,0.028985507246376812,0.0,0.0,0.0,0.043478260869565216,0.0,0.0,0.043478260869565216,0.0,0.043478260869565216
S13_D13 hbo,0.0,0.0,0.0,0.0,0.0,0.0,0.0,0.0,0.0,0.0,0.0,0.0,0.0,0.0,0.0,0.0,0.0,0.0,0.0,0.0,0.0,0.0,0.0,0.0,0.0,0.0,0.0,0.0,0.0,0.0,0.0,0.0,0.0,0.0,0.0,0.0,0.0,0.0,0.0,0.0,0.0,0.0,0.0,0.0,0.0,0.0,0.0,0.0,0.0,0.0,0.0,0.0
S13_D15 hbo,0.0,0.04065040650406504,0.0,0.04065040650406504,0.04065040650406504,0.0,0.04065040650406504,0.04065040650406504,0.04065040650406504,0.024390243902439025,0.04065040650406504,0.0,0.04065040650406504,0.024390243902439025,0.04065040650406504,0.0,0.04065040650406504,0.024390243902439025,0.008130081300813009,0.0,0.04065040650406504,0.04065040650406504,0.04065040650406504,0.0,0.0,0.008130081300813009,0.04065040650406504,0.0,0.04065040650406504,0.0,0.0,0.0,0.024390243902439025,0.04065040650406504,0.0,0.0,0.0,0.0,0.0,0.04065040650406504,0.04065040650406504,0.0,0.032520325203252036,0.0,0.0,0.0,0.04065040650406504,0.0,0.0,0.04065040650406504,0.0,0.04065040650406504
S14_D12 hbo,0.0,0.0,0.0,0.0,0.0,0.0,0.0,0.0,0.0,0.0,0.0,0.0,0.0,0.0,0.0,0.0,0.0,0.0,0.0,0.0,0.0,0.0,0.0,0.0,0.0,0.0,0.0,0.0,0.0,0.0,0.0,0.0,0.0,0.0,0.0,0.0,0.0,0.0,0.0,0.0,0.0,0.0,0.0,0.0,0.0,0.0,0.0,0.0,0.0,0.0,0.0,0.0
S14_D13 hbo,0.0,0.03571428571428571,0.0,0.03571428571428571,0.03571428571428571,0.0,0.03571428571428571,0.03571428571428571,0.03571428571428571,0.03571428571428571,0.03571428571428571,0.0,0.03571428571428571,0.03571428571428571,0.03571428571428571,0.0,0.03571428571428571,0.03571428571428571,0.03571428571428571,0.0,0.03571428571428571,0.03571428571428571,0.03571428571428571,0.0,0.0,0.03571428571428571,0.03571428571428571,0.0,0.03571428571428571,0.0,0.0,0.0,0.03571428571428571,0.03571428571428571,0.0,0.0,0.0,0.0,0.0,0.03571428571428571,0.03571428571428571,0.0,0.03571428571428571,0.0,0.0,0.0,0.03571428571428571,0.0,0.0,0.03571428571428571,0.0,0.03571428571428571
S14_D14 hbo,0.0,0.0,0.0,0.0,0.0,0.0,0.0,0.0,0.0,0.0,0.0,0.0,0.0,0.0,0.0,0.0,0.0,0.0,0.0,0.0,0.0,0.0,0.0,0.0,0.0,0.0,0.0,0.0,0.0,0.0,0.0,0.0,0.0,0.0,0.0,0.0,0.0,0.0,0.0,0.0,0.0,0.0,0.0,0.0,0.0,0.0,0.0,0.0,0.0,0.0,0.0,0.0
S14_D16 hbo,0.0,0.04285714285714286,0.0,0.023809523809523808,0.04285714285714286,0.0,0.02857142857142857,0.03333333333333333,0.04285714285714286,0.014285714285714285,0.02857142857142857,0.0,0.047619047619047616,0.014285714285714285,0.05238095238095238,0.0,0.02857142857142857,0.014285714285714285,0.004761904761904762,0.0,0.05238095238095238,0.023809523809523808,0.08571428571428572,0.0,0.0,0.004761904761904762,0.023809523809523808,0.0,0.023809523809523808,0.0,0.0,0.0,0.014285714285714285,0.03333333333333333,0.0,0.0,0.0,0.0,0.0,0.023809523809523808,0.023809523809523808,0.0,0.01904761904761905,0.0,0.0,0.0,0.08095238095238096,0.0,0.0,0.08571428571428572,0.0,0.08571428571428572
S15_D13 hbo,0.0,0.0,0.0,0.0,0.0,0.0,0.0,0.0,0.0,0.0,0.0,0.0,0.0,0.0,0.0,0.0,0.0,0.0,0.0,0.0,0.0,0.0,0.0,0.0,0.0,0.0,0.0,0.0,0.0,0.0,0.0,0.0,0.0,0.0,0.0,0.0,0.0,0.0,0.0,0.0,0.0,0.0,0.0,0.0,0.0,0.0,0.0,0.0,0.0,0.0,0.0,0.0
S15_D15 hbo,0.0,0.0,0.0,0.0,0.0,0.0,0.0,0.0,0.0,0.0,0.0,0.0,0.0,0.0,0.0,0.0,0.0,0.0,0.0,0.0,0.0,0.0,0.0,0.0,0.0,0.0,0.0,0.0,0.0,0.0,0.0,0.0,0.0,0.0,0.0,0.0,0.0,0.0,0.0,0.0,0.0,0.0,0.0,0.0,0.0,0.0,0.0,0.0,0.0,0.0,0.0,0.0
S15_D16 hbo,0.0,0.04054054054054054,0.0,0.02252252252252252,0.04054054054054054,0.0,0.02702702702702703,0.03153153153153153,0.04054054054054054,0.013513513513513514,0.02702702702702703,0.0,0.04504504504504504,0.013513513513513514,0.04954954954954955,0.0,0.02702702702702703,0.013513513513513514,0.0045045045045045045,0.0,0.04954954954954955,0.02252252252252252,0.10810810810810811,0.0,0.0,0.0045045045045045045,0.02252252252252252,0.0,0.02252252252252252,0.0,0.0,0.0,0.013513513513513514,0.03153153153153153,0.0,0.0,0.0,0.0,0.0,0.02252252252252252,0.02252252252252252,0.0,0.018018018018018018,0.0,0.0,0.0,0.07657657657657657,0.0,0.0,0.1036036036036036,0.0,0.08558558558558559
S16_D14 hbo,0.0,0.0,0.0,0.0,0.0,0.0,0.0,0.0,0.0,0.0,0.0,0.0,0.0,0.0,0.0,0.0,0.0,0.0,0.0,0.0,0.0,0.0,0.0,0.0,0.0,0.0,0.0,0.0,0.0,0.0,0.0,0.0,0.0,0.0,0.0,0.0,0.0,0.0,0.0,0.0,0.0,0.0,0.0,0.0,0.0,0.0,0.0,0.0,0.0,0.0,0.0,0.0
S16_D16 hbo,0.0,0.04186046511627907,0.0,0.023255813953488372,0.04186046511627907,0.0,0.027906976744186046,0.03255813953488372,0.04186046511627907,0.013953488372093023,0.027906976744186046,0.0,0.046511627906976744,0.013953488372093023,0.05116279069767442,0.0,0.027906976744186046,0.013953488372093023,0.004651162790697674,0.0,0.05116279069767442,0.023255813953488372,0.09302325581395349,0.0,0.0,0.004651162790697674,0.023255813953488372,0.0,0.023255813953488372,0.0,0.0,0.0,0.013953488372093023,0.03255813953488372,0.0,0.0,0.0,0.0,0.0,0.023255813953488372,0.023255813953488372,0.0,0.018604651162790697,0.0,0.0,0.0,0.07906976744186046,0.0,0.0,0.09302325581395349,0.0,0.08837209302325581
