,S1_D1 hbo,S1_D3 hbo,S2_D1 hbo,S2_D2 hbo,S2_D4 hbo,S3_D1 hbo,S3_D3 hbo,S3_D4 hbo,S3_D5 hbo,S4_D2 hbo,S4_D4 hbo,S4_D6 hbo,S4_D11 hbo,S5_D3 hbo,S5_D5 hbo,S5_D7 hbo,S6_D4 hbo,S6_D5 hbo,S6_D6 hbo,S6_D8 hbo,S7_D5 hbo,S7_D7 hbo,S7_D8 hbo,S8_D6 hbo,S8_D8 hbo,S8_D15 hbo,S9_D2 hbo,S9_D9 hbo,S9_D11 hbo,S10_D9 hbo,S10_D10 hbo,S10_D12 hbo,S11_D9 hbo,S11_D11 hbo,S11_D12 hbo,S11_D13 hbo,S12_D10 hbo,S12_D12 hbo,S12_D14 hbo,S13_D6 hbo,S13_D11 hbo,S13_D13 hbo,S13_D15 hbo,S14_D12 hbo,S14_D13 hbo,S14_D14 hbo,S14_D16 hbo,S15_D13 hbo,S15_D15 hbo,S15_D16 hbo,S16_D14 hbo,S16_D16 hbo
S1_D1 hbo,0.1597444089456869,0.003194888178913738,0.0,0.04472843450479233,0.0,0.06070287539936102,0.0,0.0,0.0,0.0,0.003194888178913738,0.0,0.009584664536741214,0.0,0.006389776357827476,0.038338658146964855,0.0,0.009584664536741214,0.003194888178913738,0.003194888178913738,0.006389776357827476,0.0,0.006389776357827476,0.0,0.0,0.003194888178913738,0.04153354632587859,0.038338658146964855,0.006389776357827476,0.022364217252396165,0.10543130990415335,0.01597444089456869,0.009584664536741214,0.003194888178913738,0.022364217252396165,0.012779552715654952,0.054313099041533544,0.04472843450479233,0.0670926517571885,0.0,0.0,0.0,0.0,0.04792332268370607,0.003194888178913738,0.03514376996805112,0.0,0.006389776357827476,0.0670926517571885,0.009584664536741214,0.0,0.02875399361022364
S1_D3 hbo,0.015748031496062992,0.16535433070866143,0.0,0.015748031496062992,0.0,0.0,0.15748031496062992,0.10236220472440945,0.0,0.0,0.11023622047244094,0.031496062992125984,0.11023622047244094,0.015748031496062992,0.0,0.0,0.07874015748031496,0.0,0.07874015748031496,0.0,0.0,0.0,0.0,0.0,0.0,0.0,0.015748031496062992,0.015748031496062992,0.0,0.0,0.015748031496062992,0.0,0.0,0.0,0.0,0.0,0.015748031496062992,0.0,0.015748031496062992,0.0,0.0,0.0,0.0,0.007874015748031496,0.0,0.0,0.0,0.0,0.015748031496062992,0.0,0.0,0.015748031496062992
S2_D1 hbo,0.0,0.0,0.028622540250447227,0.0,0.0,0.0,0.0,0.0,0.03041144901610018,0.03041144901610018,0.028622540250447227,0.025044722719141325,0.03041144901610018,0.0,0.03041144901610018,0.01967799642218247,0.028622540250447227,0.03041144901610018,0.03041144901610018,0.03041144901610018,0.03041144901610018,0.03041144901610018,0.03041144901610018,0.03041144901610018,0.03041144901610018,0.03041144901610018,0.0,0.0,0.03041144901610018,0.01967799642218247,0.0,0.025044722719141325,0.028622540250447227,0.028622540250447227,0.026833631484794274,0.03041144901610018,0.0,0.0,0.0,0.03041144901610018,0.03041144901610018,0.03041144901610018,0.03041144901610018,0.014311270125223614,0.03041144901610018,0.005366726296958855,0.023255813953488372,0.03041144901610018,0.0,0.03041144901610018,0.028622540250447227,0.0
S2_D2 hbo,0.13392857142857142,0.008928571428571428,0.0,0.125,0.0,0.0,0.0,0.0,0.0,0.0,0.0,0.0,0.0,0.0,0.0,0.05357142857142857,0.0,0.0,0.0,0.0,0.0,0.0,0.0,0.0,0.0,0.0,0.11607142857142858,0.10714285714285714,0.0,0.008928571428571428,0.07142857142857142,0.0,0.0,0.0,0.008928571428571428,0.0,0.07142857142857142,0.0,0.044642857142857144,0.0,0.0,0.0,0.0,0.08035714285714286,0.0,0.044642857142857144,0.0,0.0,0.044642857142857144,0.0,0.0,0.08035714285714286
S2_D4 hbo,0.0,0.0,0.0,0.0,1.0,0.0,0.0,0.0,0.0,0.0,0.0,0.0,0.0,0.0,0.0,0.0,0.0,0.0,0.0,0.0,0.0,0.0,0.0,0.0,0.0,0.0,0.0,0.0,0.0,0.0,0.0,0.0,0.0,0.0,0.0,0.0,0.0,0.0,0.0,0.0,0.0,0.0,0.0,0.0,0.0,0.0,0.0,0.0,0.0,0.0,0.0,0.0
S3_D1 hbo,0.15748031496062992,0.0,0.0,0.0,0.0,0.25196850393700787,0.0,0.0,0.0,0.0,0.0,0.0,0.0,0.0,0.0,0.0,0.0,0.0,0.0,0.0,0.0,0.0,0.0,0.0,0.0,0.0,0.0,0.0,0.0,0.0,0.16535433070866143,0.0,0.0,0.0,0.0,0.0,0.07086614173228346,0.015748031496062992,0.1889763779527559,0.0,0.0,0.0,0.0,0.0,0.0,0.0,0.0,0.0,0.14960629921259844,0.0,0.0,0.0
S3_D3 hbo,0.0,0.17757009345794392,0.0,0.0,0.0,0.0,0.19626168224299065,0.12149532710280374,0.0,0.0,0.1308411214953271,0.037383177570093455,0.1308411214953271,0.018691588785046728,0.0,0.0,0.09345794392523364,0.0,0.09345794392523364,0.0,0.0,0.0,0.0,0.0,0.0,0.0,0.0,0.0,0.0,0.0,0.0,0.0,0.0,0.0,0.0,0.0,0.0,0.0,0.0,0.0,0.0,0.0,0.0,0.0,0.0,0.0,0.0,0.0,0.0,0.0,0.0,0.0
S3_D4 hbo,0.0,0.1368421052631579,0.0,0.0,0.0,0.0,0.1368421052631579,0.2,0.0,0.0,0.1368421052631579,0.042105263157894736,0.1368421052631579,0.0,0.0,0.0,0.10526315789473684,0.0,0.10526315789473684,0.0,0.0,0.0,0.0,0.0,0.0,0.0,0.0,0.0,0.0,0.0,0.0,0.0,0.0,0.0,0.0,0.0,0.0,0.0,0.0,0.0,0.0,0.0,0.0,0.0,0.0,0.0,0.0,0.0,0.0,0.0,0.0,0.0
S3_D5 hbo,0.0,0.0,0.018008474576271187,0.0,0.0,0.0,0.0,0.0,0.038135593220338986,0.022245762711864406,0.020127118644067795,0.014830508474576272,0.022245762711864406,0.009533898305084746,0.04025423728813559,0.024364406779661018,0.020127118644067795,0.022245762711864406,0.022245762711864406,0.022245762711864406,0.03283898305084746,0.022245762711864406,0.022245762711864406,0.037076271186440676,0.03072033898305085,0.03072033898305085,0.0,0.0,0.022245762711864406,0.014830508474576272,0.0,0.03177966101694915,0.020127118644067795,0.025423728813559324,0.037076271186440676,0.03919491525423729,0.0,0.0,0.0,0.03389830508474576,0.036016949152542374,0.03283898305084746,0.04025423728813559,0.011652542372881356,0.03919491525423729,0.024364406779661018,0.034957627118644065,0.04025423728813559,0.0,0.023305084745762712,0.020127118644067795,0.0
S4_D2 hbo,0.0,0.0,0.021963824289405683,0.0,0.0,0.0,0.0,0.0,0.027131782945736434,0.03229974160206718,0.027131782945736434,0.01808785529715762,0.031007751937984496,0.0,0.029715762273901807,0.020671834625323,0.025839793281653745,0.031007751937984496,0.03229974160206718,0.03359173126614987,0.03359173126614987,0.031007751937984496,0.03359173126614987,0.029715762273901807,0.03229974160206718,0.029715762273901807,0.0,0.0,0.031007751937984496,0.020671834625323,0.0,0.02454780361757106,0.027131782945736434,0.027131782945736434,0.025839793281653745,0.028423772609819122,0.0,0.0,0.0,0.031007751937984496,0.03229974160206718,0.031007751937984496,0.03229974160206718,0.016795865633074936,0.028423772609819122,0.0103359173126615,0.023255813953488372,0.03229974160206718,0.0,0.031007751937984496,0.025839793281653745,0.0
S4_D4 hbo,0.0,0.0166073546856465,0.020166073546856466,0.0,0.0,0.0,0.0166073546856465,0.014234875444839857,0.02491103202846975,0.027283511269276393,0.04151838671411625,0.021352313167259787,0.042704626334519574,0.0,0.027283511269276393,0.020166073546856466,0.03558718861209965,0.027283511269276393,0.03914590747330961,0.027283511269276393,0.027283511269276393,0.02609727164887307,0.027283511269276393,0.02609727164887307,0.02609727164887307,0.027283511269276393,0.0,0.0,0.027283511269276393,0.020166073546856466,0.0,0.02372479240806643,0.02609727164887307,0.02609727164887307,0.02491103202846975,0.027283511269276393,0.0,0.0,0.0,0.02609727164887307,0.027283511269276393,0.027283511269276393,0.027283511269276393,0.0166073546856465,0.027283511269276393,0.010676156583629894,0.021352313167259787,0.027283511269276393,0.0,0.027283511269276393,0.02372479240806643,0.0
S4_D6 hbo,0.0,0.007936507936507936,0.027777777777777776,0.0,0.0,0.0,0.007936507936507936,0.007936507936507936,0.027777777777777776,0.027777777777777776,0.03571428571428571,0.031746031746031744,0.03571428571428571,0.0,0.027777777777777776,0.01984126984126984,0.03571428571428571,0.027777777777777776,0.03571428571428571,0.027777777777777776,0.027777777777777776,0.027777777777777776,0.027777777777777776,0.027777777777777776,0.027777777777777776,0.027777777777777776,0.0,0.0,0.027777777777777776,0.01984126984126984,0.0,0.025793650793650792,0.027777777777777776,0.027777777777777776,0.027777777777777776,0.027777777777777776,0.0,0.0,0.0,0.027777777777777776,0.027777777777777776,0.027777777777777776,0.027777777777777776,0.013888888888888888,0.027777777777777776,0.003968253968253968,0.023809523809523808,0.027777777777777776,0.0,0.027777777777777776,0.027777777777777776,0.0
S4_D11 hbo,0.0010799136069114472,0.01511879049676026,0.0183585313174946,0.0,0.0,0.0,0.01511879049676026,0.012958963282937365,0.02267818574514039,0.028077753779697623,0.038876889848812095,0.019438444924406047,0.04319654427645788,0.0,0.028077753779697623,0.020518358531317494,0.032397408207343416,0.029157667386609073,0.03995680345572354,0.029157667386609073,0.03023758099352052,0.02591792656587473,0.03023758099352052,0.024838012958963283,0.026997840172786176,0.026997840172786176,0.0,0.0,0.029157667386609073,0.020518358531317494,0.0,0.023758099352051837,0.02591792656587473,0.024838012958963283,0.024838012958963283,0.026997840172786176,0.0,0.0,0.0,0.02591792656587473,0.028077753779697623,0.026997840172786176,0.028077753779697623,0.017278617710583154,0.02591792656587473,0.011879049676025918,0.019438444924406047,0.03023758099352052,0.0,0.029157667386609073,0.02159827213822894,0.0
S5_D3 hbo,0.0,0.012269938650306749,0.0,0.0,0.0,0.0,0.006134969325153374,0.0,0.05521472392638037,0.0,0.0,0.0,0.0,0.06134969325153374,0.05521472392638037,0.03067484662576687,0.0,0.0,0.0,0.0,0.04294478527607362,0.0,0.0,0.05521472392638037,0.03067484662576687,0.024539877300613498,0.0,0.0,0.0,0.0,0.0,0.05521472392638037,0.0,0.03067484662576687,0.05521472392638037,0.05521472392638037,0.0,0.0,0.0,0.049079754601226995,0.05521472392638037,0.04294478527607362,0.05521472392638037,0.0,0.05521472392638037,0.05521472392638037,0.05521472392638037,0.05521472392638037,0.0,0.006134969325153374,0.0,0.0
S5_D5 hbo,0.0,0.0,0.015370705244122965,0.0,0.0,0.0,0.0,0.0,0.034358047016274866,0.022603978300180832,0.020795660036166366,0.012658227848101266,0.023508137432188065,0.0081374321880651,0.0406871609403255,0.026220614828209764,0.018083182640144666,0.023508137432188065,0.023508137432188065,0.023508137432188065,0.0325497287522604,0.0216998191681736,0.023508137432188065,0.0352622061482821,0.028933092224231464,0.029837251356238697,0.0,0.0,0.023508137432188065,0.0162748643761302,0.0,0.0325497287522604,0.020795660036166366,0.02531645569620253,0.037070524412296565,0.03887884267631103,0.0,0.0,0.0,0.03164556962025317,0.034358047016274866,0.03164556962025317,0.04159132007233273,0.013562386980108499,0.0406871609403255,0.02802893309222423,0.0352622061482821,0.04159132007233273,0.0,0.024412296564195298,0.018083182640144666,0.0
S5_D7 hbo,0.01124859392575928,0.0,0.014623172103487065,0.0044994375703037125,0.0,0.0,0.0,0.0,0.030371203599550055,0.020247469066366704,0.021372328458942633,0.013498312710911136,0.023622047244094488,0.007874015748031496,0.0359955005624297,0.043869516310461196,0.01799775028121485,0.023622047244094488,0.021372328458942633,0.021372328458942633,0.02699662542182227,0.019122609673790775,0.02249718785151856,0.02699662542182227,0.021372328458942633,0.02249718785151856,0.0022497187851518562,0.0011248593925759281,0.02249718785151856,0.02699662542182227,0.003374578177727784,0.03937007874015748,0.023622047244094488,0.025871766029246346,0.04161979752530934,0.03824521934758155,0.0,0.0,0.0,0.024746906636670417,0.02699662542182227,0.024746906636670417,0.03374578177727784,0.0281214848143982,0.03487064116985377,0.0359955005624297,0.03262092238470191,0.0359955005624297,0.0,0.023622047244094488,0.01799775028121485,0.0044994375703037125
S6_D4 hbo,0.0,0.013623978201634877,0.02316076294277929,0.0,0.0,0.0,0.013623978201634877,0.013623978201634877,0.027247956403269755,0.027247956403269755,0.039509536784741145,0.02452316076294278,0.04087193460490463,0.0,0.027247956403269755,0.01907356948228883,0.03814713896457766,0.027247956403269755,0.039509536784741145,0.027247956403269755,0.027247956403269755,0.027247956403269755,0.027247956403269755,0.027247956403269755,0.027247956403269755,0.027247956403269755,0.0,0.0,0.027247956403269755,0.01907356948228883,0.0,0.02316076294277929,0.025885558583106268,0.025885558583106268,0.02452316076294278,0.027247956403269755,0.0,0.0,0.0,0.027247956403269755,0.027247956403269755,0.027247956403269755,0.027247956403269755,0.014986376021798364,0.027247956403269755,0.008174386920980926,0.021798365122615803,0.027247956403269755,0.0,0.027247956403269755,0.025885558583106268,0.0
S6_D5 hbo,0.0011961722488038277,0.0,0.02033492822966507,0.0,0.0,0.0,0.0,0.0,0.025119617224880382,0.03110047846889952,0.02751196172248804,0.01674641148325359,0.03229665071770335,0.0,0.03110047846889952,0.022727272727272728,0.023923444976076555,0.03229665071770335,0.03229665071770335,0.03229665071770335,0.03349282296650718,0.028708133971291867,0.03349282296650718,0.02751196172248804,0.029904306220095694,0.029904306220095694,0.0,0.0,0.03229665071770335,0.022727272727272728,0.0,0.02631578947368421,0.028708133971291867,0.02751196172248804,0.02751196172248804,0.029904306220095694,0.0,0.0,0.0,0.028708133971291867,0.03110047846889952,0.029904306220095694,0.03110047846889952,0.019138755980861243,0.028708133971291867,0.013157894736842105,0.0215311004784689,0.03349282296650718,0.0,0.03229665071770335,0.023923444976076555,0.0
S6_D6 hbo,0.0,0.011467889908256881,0.0194954128440367,0.0,0.0,0.0,0.011467889908256881,0.011467889908256881,0.02408256880733945,0.02981651376146789,0.03669724770642202,0.020642201834862386,0.040137614678899085,0.0,0.027522935779816515,0.0194954128440367,0.033256880733944956,0.028669724770642203,0.040137614678899085,0.03096330275229358,0.03096330275229358,0.027522935779816515,0.03096330275229358,0.026376146788990827,0.028669724770642203,0.027522935779816515,0.0,0.0,0.028669724770642203,0.0194954128440367,0.0,0.022935779816513763,0.02522935779816514,0.02522935779816514,0.02408256880733945,0.026376146788990827,0.0,0.0,0.0,0.027522935779816515,0.02981651376146789,0.028669724770642203,0.02981651376146789,0.016055045871559634,0.026376146788990827,0.010321100917431193,0.020642201834862386,0.02981651376146789,0.0,0.028669724770642203,0.022935779816513763,0.0
S6_D8 hbo,0.0,0.0,0.02125,0.0,0.0,0.0,0.0,0.0,0.02625,0.0325,0.0275,0.0175,0.03125,0.0,0.03,0.02125,0.025,0.03125,0.0325,0.03375,0.03375,0.03,0.03375,0.02875,0.03125,0.03,0.0,0.0,0.03125,0.02125,0.0,0.025,0.0275,0.0275,0.02625,0.02875,0.0,0.0,0.0,0.03,0.0325,0.03125,0.0325,0.0175,0.02875,0.01125,0.0225,0.0325,0.0,0.03125,0.025,0.0
S7_D5 hbo,0.0,0.0,0.017137096774193547,0.0,0.0,0.0,0.0,0.0,0.03024193548387097,0.02620967741935484,0.023185483870967742,0.014112903225806451,0.02620967741935484,0.005040322580645161,0.03528225806451613,0.020161290322580645,0.020161290322580645,0.02620967741935484,0.02721774193548387,0.028225806451612902,0.037298387096774195,0.024193548387096774,0.028225806451612902,0.03326612903225806,0.03326612903225806,0.03326612903225806,0.0,0.0,0.02620967741935484,0.018145161290322582,0.0,0.02721774193548387,0.023185483870967742,0.02721774193548387,0.03225806451612903,0.034274193548387094,0.0,0.0,0.0,0.03326612903225806,0.036290322580645164,0.034274193548387094,0.036290322580645164,0.015120967741935484,0.034274193548387094,0.020161290322580645,0.028225806451612902,0.037298387096774195,0.0,0.02721774193548387,0.020161290322580645,0.0
S7_D7 hbo,0.0,0.0,0.022972972972972974,0.0,0.0,0.0,0.0,0.0,0.02837837837837838,0.032432432432432434,0.02702702702702703,0.01891891891891892,0.031081081081081083,0.0,0.02972972972972973,0.02027027027027027,0.02702702702702703,0.031081081081081083,0.032432432432432434,0.032432432432432434,0.032432432432432434,0.031081081081081083,0.032432432432432434,0.02972972972972973,0.032432432432432434,0.02972972972972973,0.0,0.0,0.031081081081081083,0.02027027027027027,0.0,0.024324324324324326,0.02702702702702703,0.02702702702702703,0.025675675675675677,0.02837837837837838,0.0,0.0,0.0,0.031081081081081083,0.032432432432432434,0.031081081081081083,0.032432432432432434,0.016216216216216217,0.02837837837837838,0.00945945945945946,0.022972972972972974,0.032432432432432434,0.0,0.031081081081081083,0.02702702702702703,0.0
S7_D8 hbo,0.0,0.0,0.02068126520681265,0.0,0.0,0.0,0.0,0.0,0.025547445255474453,0.031630170316301706,0.027980535279805353,0.0170316301703163,0.031630170316301706,0.0,0.030413625304136254,0.021897810218978103,0.024330900243309004,0.031630170316301706,0.032846715328467155,0.0340632603406326,0.0340632603406326,0.029197080291970802,0.0340632603406326,0.027980535279805353,0.030413625304136254,0.030413625304136254,0.0,0.0,0.031630170316301706,0.021897810218978103,0.0,0.025547445255474453,0.027980535279805353,0.027980535279805353,0.0267639902676399,0.029197080291970802,0.0,0.0,0.0,0.029197080291970802,0.031630170316301706,0.030413625304136254,0.031630170316301706,0.01824817518248175,0.029197080291970802,0.012165450121654502,0.021897810218978103,0.032846715328467155,0.0,0.031630170316301706,0.024330900243309004,0.0
S8_D6 hbo,0.0,0.0,0.017671517671517672,0.0,0.0,0.0,0.0,0.0,0.034303534303534305,0.02390852390852391,0.02079002079002079,0.014553014553014554,0.02390852390852391,0.008316008316008316,0.037422037422037424,0.02079002079002079,0.02079002079002079,0.02390852390852391,0.02390852390852391,0.02390852390852391,0.034303534303534305,0.02390852390852391,0.02390852390852391,0.038461538461538464,0.032224532224532226,0.031185031185031187,0.0,0.0,0.02390852390852391,0.015592515592515593,0.0,0.028066528066528068,0.02079002079002079,0.02598752598752599,0.033264033264033266,0.035343035343035345,0.0,0.0,0.0,0.035343035343035345,0.037422037422037424,0.034303534303534305,0.0395010395010395,0.012474012474012475,0.037422037422037424,0.02390852390852391,0.034303534303534305,0.038461538461538464,0.0,0.02494802494802495,0.02079002079002079,0.0
S8_D8 hbo,0.0,0.0,0.019406392694063926,0.0,0.0,0.0,0.0,0.0,0.0319634703196347,0.0273972602739726,0.0228310502283105,0.01598173515981735,0.026255707762557076,0.003424657534246575,0.03424657534246575,0.017123287671232876,0.0228310502283105,0.026255707762557076,0.0273972602739726,0.028538812785388126,0.0365296803652968,0.026255707762557076,0.028538812785388126,0.03424657534246575,0.03538812785388128,0.03424657534246575,0.0,0.0,0.026255707762557076,0.017123287671232876,0.0,0.02511415525114155,0.0228310502283105,0.02511415525114155,0.030821917808219176,0.033105022831050226,0.0,0.0,0.0,0.03424657534246575,0.0365296803652968,0.03424657534246575,0.0365296803652968,0.0136986301369863,0.033105022831050226,0.017123287671232876,0.028538812785388126,0.0365296803652968,0.0,0.0273972602739726,0.0228310502283105,0.0
S8_D15 hbo,0.0,0.0,0.0187018701870187,0.0,0.0,0.0,0.0,0.0,0.0297029702970297,0.027502750275027504,0.0242024202420242,0.015401540154015401,0.027502750275027504,0.0022002200220022,0.0352035203520352,0.0187018701870187,0.022002200220022004,0.027502750275027504,0.027502750275027504,0.027502750275027504,0.034103410341034104,0.026402640264026403,0.027502750275027504,0.034103410341034104,0.033003300330033,0.034103410341034104,0.0,0.0,0.027502750275027504,0.0187018701870187,0.0,0.025302530253025302,0.0242024202420242,0.025302530253025302,0.030803080308030802,0.033003300330033,0.0,0.0,0.0,0.033003300330033,0.0352035203520352,0.034103410341034104,0.036303630363036306,0.015401540154015401,0.034103410341034104,0.0187018701870187,0.028602860286028604,0.036303630363036306,0.0,0.028602860286028604,0.022002200220022004,0.0
S9_D2 hbo,0.11926605504587157,0.009174311926605505,0.0,0.11926605504587157,0.0,0.0,0.0,0.0,0.0,0.0,0.0,0.0,0.0,0.0,0.0,0.03669724770642202,0.0,0.0,0.0,0.0,0.0,0.0,0.0,0.0,0.0,0.0,0.14678899082568808,0.14678899082568808,0.0,0.0,0.07339449541284404,0.0,0.0,0.0,0.0,0.0,0.09174311926605505,0.0,0.045871559633027525,0.0,0.0,0.0,0.0,0.06422018348623854,0.0,0.027522935779816515,0.0,0.0,0.045871559633027525,0.0,0.0,0.07339449541284404
S9_D9 hbo,0.10483870967741936,0.008064516129032258,0.0,0.0967741935483871,0.0,0.008064516129032258,0.0,0.0,0.0,0.0,0.0,0.0,0.0,0.0,0.0,0.024193548387096774,0.0,0.0,0.0,0.0,0.0,0.0,0.0,0.0,0.0,0.0,0.12903225806451613,0.2661290322580645,0.0,0.0,0.06451612903225806,0.0,0.0,0.0,0.0,0.0,0.08064516129032258,0.0,0.04838709677419355,0.0,0.0,0.0,0.0,0.04838709677419355,0.0,0.016129032258064516,0.0,0.0,0.04838709677419355,0.0,0.0,0.056451612903225805
S9_D11 hbo,0.0,0.0,0.020757020757020756,0.0,0.0,0.0,0.0,0.0,0.02564102564102564,0.031746031746031744,0.028083028083028084,0.017094017094017096,0.031746031746031744,0.0,0.030525030525030524,0.02197802197802198,0.02442002442002442,0.031746031746031744,0.03296703296703297,0.03296703296703297,0.03296703296703297,0.029304029304029304,0.03296703296703297,0.028083028083028084,0.030525030525030524,0.030525030525030524,0.0,0.0,0.031746031746031744,0.02197802197802198,0.0,0.02564102564102564,0.028083028083028084,0.028083028083028084,0.026862026862026864,0.029304029304029304,0.0,0.0,0.0,0.029304029304029304,0.031746031746031744,0.030525030525030524,0.031746031746031744,0.018315018315018316,0.029304029304029304,0.01221001221001221,0.02197802197802198,0.03296703296703297,0.0,0.031746031746031744,0.02442002442002442,0.0
S10_D9 hbo,0.007320644216691069,0.0,0.01903367496339678,0.0,0.0,0.0,0.0,0.0,0.02342606149341142,0.02635431918008785,0.027818448023426062,0.017569546120058566,0.03074670571010249,0.0,0.029282576866764276,0.03367496339677892,0.02342606149341142,0.03074670571010249,0.027818448023426062,0.027818448023426062,0.029282576866764276,0.024890190336749635,0.029282576866764276,0.024890190336749635,0.024890190336749635,0.027818448023426062,0.0,0.0,0.029282576866764276,0.03367496339677892,0.0,0.03367496339677892,0.03074670571010249,0.027818448023426062,0.03513909224011713,0.032210834553440704,0.0,0.0,0.0,0.024890190336749635,0.02635431918008785,0.02635431918008785,0.02635431918008785,0.029282576866764276,0.027818448023426062,0.021961932650073207,0.024890190336749635,0.029282576866764276,0.0,0.03074670571010249,0.02342606149341142,0.0
S10_D10 hbo,0.1409090909090909,0.004545454545454545,0.0,0.04090909090909091,0.0,0.1,0.0,0.0,0.0,0.0,0.0,0.0,0.0,0.0,0.0,0.022727272727272728,0.0,0.0,0.0,0.0,0.0,0.0,0.0,0.0,0.0,0.0,0.031818181818181815,0.02727272727272727,0.0,0.0,0.19090909090909092,0.0,0.0,0.0,0.0,0.0,0.05,0.06363636363636363,0.12272727272727273,0.0,0.0,0.0,0.0,0.03636363636363636,0.0,0.01818181818181818,0.0,0.0,0.10909090909090909,0.0,0.0,0.04090909090909091
S10_D12 hbo,0.002952755905511811,0.0,0.015748031496062992,0.0,0.0,0.0,0.0,0.0,0.03346456692913386,0.02066929133858268,0.021653543307086614,0.013779527559055118,0.023622047244094488,0.008858267716535433,0.03937007874015748,0.03248031496062992,0.018700787401574805,0.023622047244094488,0.021653543307086614,0.021653543307086614,0.03051181102362205,0.01968503937007874,0.022637795275590553,0.03051181102362205,0.025590551181102362,0.0265748031496063,0.0,0.0,0.022637795275590553,0.02066929133858268,0.0,0.040354330708661415,0.023622047244094488,0.0265748031496063,0.04232283464566929,0.04232283464566929,0.0,0.0,0.0,0.028543307086614175,0.03051181102362205,0.028543307086614175,0.03740157480314961,0.017716535433070866,0.03740157480314961,0.03051181102362205,0.0344488188976378,0.03937007874015748,0.0,0.024606299212598427,0.018700787401574805,0.0
S11_D9 hbo,0.0012626262626262627,0.0,0.021464646464646464,0.0,0.0,0.0,0.0,0.0,0.026515151515151516,0.02904040404040404,0.02904040404040404,0.017676767676767676,0.03156565656565657,0.0,0.03156565656565657,0.023989898989898988,0.025252525252525252,0.03156565656565657,0.030303030303030304,0.030303030303030304,0.03156565656565657,0.027777777777777776,0.03156565656565657,0.027777777777777776,0.027777777777777776,0.030303030303030304,0.0,0.0,0.03156565656565657,0.023989898989898988,0.0,0.027777777777777776,0.030303030303030304,0.02904040404040404,0.02904040404040404,0.03156565656565657,0.0,0.0,0.0,0.027777777777777776,0.02904040404040404,0.02904040404040404,0.02904040404040404,0.020202020202020204,0.030303030303030304,0.013888888888888888,0.022727272727272728,0.03156565656565657,0.0,0.03156565656565657,0.025252525252525252,0.0
S11_D11 hbo,0.0,0.0,0.020070838252656435,0.0,0.0,0.0,0.0,0.0,0.030696576151121605,0.02715466351829988,0.025974025974025976,0.01652892561983471,0.02715466351829988,0.0059031877213695395,0.03305785123966942,0.02243211334120425,0.023612750885478158,0.02715466351829988,0.02715466351829988,0.02715466351829988,0.03305785123966942,0.025974025974025976,0.02715466351829988,0.031877213695395513,0.030696576151121605,0.030696576151121605,0.0,0.0,0.02715466351829988,0.020070838252656435,0.0,0.0295159386068477,0.025974025974025976,0.030696576151121605,0.030696576151121605,0.03305785123966942,0.0,0.0,0.0,0.031877213695395513,0.03305785123966942,0.03305785123966942,0.03305785123966942,0.01652892561983471,0.03305785123966942,0.01652892561983471,0.02715466351829988,0.03305785123966942,0.0,0.02833530106257379,0.023612750885478158,0.0
S11_D12 hbo,0.004533091568449683,0.0,0.015412511332728921,0.0,0.0,0.0,0.0,0.0,0.033544877606527655,0.019945602901178604,0.02085222121486854,0.012692656391659111,0.022665457842248413,0.008159564823209429,0.04079782411604715,0.03173164097914778,0.01813236627379873,0.022665457842248413,0.02085222121486854,0.02085222121486854,0.030825022665457842,0.019038984587488667,0.021758839528558477,0.032638259292837715,0.02629193109700816,0.028105167724388033,0.0,0.0,0.021758839528558477,0.02085222121486854,0.0,0.0371713508612874,0.022665457842248413,0.025385312783318223,0.04261106074342702,0.04170444242973708,0.0,0.0,0.0,0.02901178603807797,0.03173164097914778,0.02901178603807797,0.038984587488667274,0.01813236627379873,0.038984587488667274,0.032638259292837715,0.03535811423390753,0.04079782411604715,0.0,0.02357207615593835,0.01813236627379873,0.0
S11_D13 hbo,0.0017809439002671415,0.0,0.015138023152270703,0.0,0.0,0.0,0.0,0.0,0.03383793410507569,0.0213713268032057,0.020480854853072127,0.012466607301869992,0.02404274265360641,0.008014247551202136,0.041852181656277826,0.028495102404274265,0.017809439002671415,0.02404274265360641,0.02226179875333927,0.02226179875333927,0.032056990204808546,0.020480854853072127,0.02315227070347284,0.03383793410507569,0.027604630454140695,0.029385574354407838,0.0,0.0,0.02315227070347284,0.017809439002671415,0.0,0.034728406055209264,0.02226179875333927,0.024933214603739984,0.039180765805877114,0.04096170970614425,0.0,0.0,0.0,0.030276046304541407,0.03294746215494212,0.030276046304541407,0.04007123775601069,0.015138023152270703,0.039180765805877114,0.029385574354407838,0.034728406055209264,0.041852181656277826,0.0,0.024933214603739984,0.017809439002671415,0.0
S12_D10 hbo,0.136,0.008,0.0,0.064,0.0,0.072,0.0,0.0,0.0,0.0,0.0,0.0,0.0,0.0,0.0,0.0,0.0,0.0,0.0,0.0,0.0,0.0,0.0,0.0,0.0,0.0,0.096,0.096,0.0,0.0,0.096,0.0,0.0,0.0,0.0,0.0,0.168,0.0,0.128,0.0,0.0,0.0,0.0,0.016,0.0,0.0,0.0,0.0,0.096,0.0,0.0,0.024
S12_D12 hbo,0.14285714285714285,0.0,0.0,0.0,0.0,0.0,0.0,0.0,0.0,0.0,0.0,0.0,0.0,0.0,0.0,0.0,0.0,0.0,0.0,0.0,0.0,0.0,0.0,0.0,0.0,0.0,0.0,0.0,0.0,0.0,0.16666666666666666,0.0,0.0,0.0,0.0,0.0,0.0,0.5238095238095238,0.0,0.0,0.0,0.0,0.0,0.0,0.0,0.0,0.0,0.0,0.16666666666666666,0.0,0.0,0.0
S12_D14 hbo,0.11864406779661017,0.005649717514124294,0.0,0.03389830508474576,0.0,0.14124293785310735,0.0,0.0,0.0,0.0,0.0,0.0,0.0,0.0,0.0,0.011299435028248588,0.0,0.0,0.0,0.0,0.0,0.0,0.0,0.0,0.0,0.0,0.03389830508474576,0.03389830508474576,0.0,0.0,0.15254237288135594,0.0,0.0,0.0,0.0,0.0,0.07909604519774012,0.0,0.1864406779661017,0.0,0.0,0.0,0.0,0.02824858757062147,0.0,0.005649717514124294,0.0,0.0,0.13559322033898305,0.0,0.0,0.03389830508474576
S13_D6 hbo,0.0,0.0,0.018318965517241378,0.0,0.0,0.0,0.0,0.0,0.0334051724137931,0.02586206896551724,0.021551724137931036,0.015086206896551725,0.02478448275862069,0.00646551724137931,0.03556034482758621,0.01939655172413793,0.021551724137931036,0.02478448275862069,0.02586206896551724,0.02586206896551724,0.036637931034482756,0.02478448275862069,0.02586206896551724,0.03556034482758621,0.034482758620689655,0.032327586206896554,0.0,0.0,0.02478448275862069,0.016163793103448277,0.0,0.02693965517241379,0.021551724137931036,0.02693965517241379,0.032327586206896554,0.034482758620689655,0.0,0.0,0.0,0.03556034482758621,0.03771551724137931,0.03556034482758621,0.03771551724137931,0.01293103448275862,0.034482758620689655,0.01939655172413793,0.03017241379310345,0.03771551724137931,0.0,0.02586206896551724,0.021551724137931036,0.0
S13_D11 hbo,0.0,0.0,0.017276422764227643,0.0,0.0,0.0,0.0,0.0,0.032520325203252036,0.02540650406504065,0.021341463414634148,0.014227642276422764,0.024390243902439025,0.007113821138211382,0.036585365853658534,0.02032520325203252,0.02032520325203252,0.024390243902439025,0.02540650406504065,0.026422764227642278,0.036585365853658534,0.024390243902439025,0.026422764227642278,0.036585365853658534,0.03353658536585366,0.031504065040650404,0.0,0.0,0.024390243902439025,0.016260162601626018,0.0,0.027439024390243903,0.021341463414634148,0.026422764227642278,0.032520325203252036,0.034552845528455285,0.0,0.0,0.0,0.03556910569105691,0.037601626016260166,0.034552845528455285,0.03861788617886179,0.013211382113821139,0.03556910569105691,0.021341463414634148,0.031504065040650404,0.03861788617886179,0.0,0.02540650406504065,0.02032520325203252,0.0
S13_D13 hbo,0.0,0.0,0.018065887353878853,0.0,0.0,0.0,0.0,0.0,0.031880977683315624,0.026567481402763018,0.022316684378320937,0.01487778958554729,0.025504782146652496,0.005313496280552604,0.03506907545164718,0.019128586609989374,0.021253985122210415,0.025504782146652496,0.026567481402763018,0.026567481402763018,0.036131774707757705,0.025504782146652496,0.026567481402763018,0.03506907545164718,0.03506907545164718,0.03294367693942614,0.0,0.0,0.025504782146652496,0.01700318809776833,0.0,0.026567481402763018,0.022316684378320937,0.026567481402763018,0.031880977683315624,0.03400637619553666,0.0,0.0,0.0,0.03506907545164718,0.03719447396386823,0.03506907545164718,0.03719447396386823,0.01381509032943677,0.03400637619553666,0.019128586609989374,0.02975557917109458,0.03719447396386823,0.0,0.026567481402763018,0.021253985122210415,0.0
S13_D15 hbo,0.0,0.0,0.01585820895522388,0.0,0.0,0.0,0.0,0.0,0.03544776119402985,0.02332089552238806,0.01958955223880597,0.013059701492537313,0.022388059701492536,0.008395522388059701,0.04011194029850746,0.025186567164179104,0.018656716417910446,0.022388059701492536,0.02332089552238806,0.024253731343283583,0.033582089552238806,0.022388059701492536,0.024253731343283583,0.036380597014925374,0.030783582089552237,0.028917910447761194,0.0,0.0,0.022388059701492536,0.014925373134328358,0.0,0.03171641791044776,0.01958955223880597,0.024253731343283583,0.036380597014925374,0.03824626865671642,0.0,0.0,0.0,0.03264925373134328,0.03544776119402985,0.03171641791044776,0.04291044776119403,0.012126865671641791,0.04011194029850746,0.027985074626865673,0.03731343283582089,0.04197761194029851,0.0,0.02332089552238806,0.018656716417910446,0.0
S14_D12 hbo,0.019877675840978593,0.0,0.01529051987767584,0.010703363914373088,0.0,0.0,0.0,0.0,0.019877675840978593,0.022935779816513763,0.024464831804281346,0.013761467889908258,0.027522935779816515,0.0,0.02599388379204893,0.04128440366972477,0.019877675840978593,0.027522935779816515,0.024464831804281346,0.024464831804281346,0.02599388379204893,0.021406727828746176,0.02599388379204893,0.021406727828746176,0.021406727828746176,0.024464831804281346,0.00764525993883792,0.0061162079510703364,0.02599388379204893,0.03363914373088685,0.009174311926605505,0.03058103975535168,0.027522935779816515,0.024464831804281346,0.03363914373088685,0.0290519877675841,0.0,0.0,0.0045871559633027525,0.021406727828746176,0.022935779816513763,0.022935779816513763,0.022935779816513763,0.053516819571865444,0.024464831804281346,0.03058103975535168,0.021406727828746176,0.02599388379204893,0.0045871559633027525,0.027522935779816515,0.019877675840978593,0.010703363914373088
S14_D13 hbo,0.0,0.0,0.016037735849056604,0.0,0.0,0.0,0.0,0.0,0.035849056603773584,0.022641509433962263,0.020754716981132074,0.013207547169811321,0.022641509433962263,0.008490566037735849,0.040566037735849055,0.02547169811320755,0.018867924528301886,0.022641509433962263,0.022641509433962263,0.022641509433962263,0.03207547169811321,0.02169811320754717,0.022641509433962263,0.03679245283018868,0.029245283018867925,0.03018867924528302,0.0,0.0,0.022641509433962263,0.016037735849056604,0.0,0.03207547169811321,0.020754716981132074,0.02547169811320755,0.03679245283018868,0.038679245283018866,0.0,0.0,0.0,0.03207547169811321,0.03490566037735849,0.03207547169811321,0.04150943396226415,0.013207547169811321,0.040566037735849055,0.02830188679245283,0.03679245283018868,0.040566037735849055,0.0,0.02358490566037736,0.018867924528301886,0.0
S14_D14 hbo,0.011984021304926764,0.0,0.006657789613848202,0.0039946737683089215,0.0,0.0,0.0,0.0,0.033288948069241014,0.013315579227696404,0.014647137150466045,0.005326231691078562,0.017310252996005325,0.011984021304926764,0.043941411451398134,0.0426098535286285,0.010652463382157125,0.017310252996005325,0.014647137150466045,0.014647137150466045,0.02929427430093209,0.011984021304926764,0.015978695073235686,0.033288948069241014,0.022636484687083888,0.02529960053262317,0.0013315579227696406,0.0,0.015978695073235686,0.022636484687083888,0.002663115845539281,0.043941411451398134,0.017310252996005325,0.02130492676431425,0.05059920106524634,0.04660452729693742,0.0,0.0,0.0,0.02663115845539281,0.03062583222370173,0.02663115845539281,0.0426098535286285,0.02663115845539281,0.0426098535286285,0.05992010652463382,0.043941411451398134,0.043941411451398134,0.0,0.018641810918774968,0.010652463382157125,0.0039946737683089215
S14_D16 hbo,0.0,0.0,0.016375545851528384,0.0,0.0,0.0,0.0,0.0,0.03820960698689956,0.019650655021834062,0.019650655021834062,0.015283842794759825,0.019650655021834062,0.009825327510917031,0.04148471615720524,0.028384279475982533,0.019650655021834062,0.019650655021834062,0.019650655021834062,0.019650655021834062,0.03056768558951965,0.019650655021834062,0.019650655021834062,0.03711790393013101,0.028384279475982533,0.028384279475982533,0.0,0.0,0.019650655021834062,0.016375545851528384,0.0,0.036026200873362446,0.019650655021834062,0.025109170305676855,0.04039301310043668,0.04039301310043668,0.0,0.0,0.0,0.03165938864628821,0.03384279475982533,0.03056768558951965,0.0425764192139738,0.013100436681222707,0.0425764192139738,0.03165938864628821,0.043668122270742356,0.04148471615720524,0.0,0.02074235807860262,0.019650655021834062,0.0
S15_D13 hbo,0.0,0.0,0.01520572450805009,0.0,0.0,0.0,0.0,0.0,0.03398926654740608,0.023255813953488372,0.020572450805008944,0.012522361359570662,0.023255813953488372,0.008050089445438283,0.04025044722719141,0.0259391771019678,0.017889087656529516,0.023255813953488372,0.024150268336314847,0.025044722719141325,0.03398926654740608,0.02146690518783542,0.025044722719141325,0.03488372093023256,0.029516994633273702,0.029516994633273702,0.0,0.0,0.023255813953488372,0.016100178890876567,0.0,0.03220035778175313,0.020572450805008944,0.025044722719141325,0.03667262969588551,0.038461538461538464,0.0,0.0,0.0,0.03130590339892665,0.03488372093023256,0.03130590339892665,0.04203935599284436,0.013416815742397137,0.04025044722719141,0.027728085867620753,0.03488372093023256,0.04203935599284436,0.0,0.024150268336314847,0.017889087656529516,0.0
S15_D15 hbo,0.10096153846153846,0.004807692307692308,0.0,0.028846153846153848,0.0,0.09615384615384616,0.0,0.0,0.0,0.0,0.0,0.0,0.0,0.0,0.0,0.009615384615384616,0.0,0.0,0.0,0.0,0.0,0.0,0.0,0.0,0.0,0.0,0.028846153846153848,0.028846153846153848,0.0,0.0,0.125,0.0,0.0,0.0,0.0,0.0,0.052884615384615384,0.0673076923076923,0.1201923076923077,0.0,0.0,0.0,0.0,0.02403846153846154,0.0,0.004807692307692308,0.0,0.0,0.27884615384615385,0.0,0.0,0.028846153846153848
S15_D16 hbo,0.00117096018735363,0.0,0.01990632318501171,0.0,0.0,0.0,0.0,0.0,0.02576112412177986,0.03044496487119438,0.026932084309133488,0.01639344262295082,0.03161592505854801,0.00117096018735363,0.03161592505854801,0.02224824355971897,0.0234192037470726,0.03161592505854801,0.03161592505854801,0.03161592505854801,0.03395784543325527,0.02810304449648712,0.03278688524590164,0.02810304449648712,0.03044496487119438,0.03044496487119438,0.0,0.0,0.03161592505854801,0.02224824355971897,0.0,0.026932084309133488,0.02810304449648712,0.026932084309133488,0.02810304449648712,0.03044496487119438,0.0,0.0,0.0,0.02927400468384075,0.03161592505854801,0.03044496487119438,0.03161592505854801,0.01873536299765808,0.02927400468384075,0.01405152224824356,0.02224824355971897,0.03395784543325527,0.0,0.03161592505854801,0.0234192037470726,0.0
S16_D14 hbo,0.0,0.0,0.0256797583081571,0.0,0.0,0.0,0.0,0.0,0.030211480362537766,0.030211480362537766,0.028700906344410877,0.021148036253776436,0.030211480362537766,0.0,0.030211480362537766,0.021148036253776436,0.028700906344410877,0.030211480362537766,0.030211480362537766,0.030211480362537766,0.030211480362537766,0.030211480362537766,0.030211480362537766,0.030211480362537766,0.030211480362537766,0.030211480362537766,0.0,0.0,0.030211480362537766,0.021148036253776436,0.0,0.0256797583081571,0.028700906344410877,0.028700906344410877,0.027190332326283987,0.030211480362537766,0.0,0.0,0.0,0.030211480362537766,0.030211480362537766,0.030211480362537766,0.030211480362537766,0.01661631419939577,0.030211480362537766,0.00906344410876133,0.02416918429003021,0.030211480362537766,0.0,0.030211480362537766,0.028700906344410877,0.0
S16_D16 hbo,0.11904761904761904,0.011904761904761904,0.0,0.10714285714285714,0.0,0.0,0.0,0.0,0.0,0.0,0.0,0.0,0.0,0.0,0.0,0.07142857142857142,0.0,0.0,0.0,0.0,0.0,0.0,0.0,0.0,0.0,0.0,0.08333333333333333,0.07142857142857142,0.0,0.011904761904761904,0.09523809523809523,0.0,0.0,0.0,0.011904761904761904,0.0,0.023809523809523808,0.0,0.05952380952380952,0.0,0.0,0.0,0.0,0.10714285714285714,0.0,0.05952380952380952,0.0,0.0,0.05952380952380952,0.0,0.0,0.10714285714285714
