,S1_D1 hbo,S1_D3 hbo,S2_D1 hbo,S2_D2 hbo,S2_D4 hbo,S3_D1 hbo,S3_D3 hbo,S3_D4 hbo,S3_D5 hbo,S4_D2 hbo,S4_D4 hbo,S4_D6 hbo,S4_D11 hbo,S5_D3 hbo,S5_D5 hbo,S5_D7 hbo,S6_D4 hbo,S6_D5 hbo,S6_D6 hbo,S6_D8 hbo,S7_D5 hbo,S7_D7 hbo,S7_D8 hbo,S8_D6 hbo,S8_D8 hbo,S8_D15 hbo,S9_D2 hbo,S9_D9 hbo,S9_D11 hbo,S10_D9 hbo,S10_D10 hbo,S10_D12 hbo,S11_D9 hbo,S11_D11 hbo,S11_D12 hbo,S11_D13 hbo,S12_D10 hbo,S12_D12 hbo,S12_D14 hbo,S13_D6 hbo,S13_D11 hbo,S13_D13 hbo,S13_D15 hbo,S14_D12 hbo,S14_D13 hbo,S14_D14 hbo,S14_D16 hbo,S15_D13 hbo,S15_D15 hbo,S15_D16 hbo,S16_D14 hbo,S16_D16 hbo
S1_D1 hbo,0.038461538461538464,0.01775147928994083,0.0,0.0,0.022189349112426034,0.029585798816568046,0.034023668639053255,0.0,0.023668639053254437,0.023668639053254437,0.0,0.022189349112426034,0.028106508875739646,0.029585798816568046,0.03254437869822485,0.02514792899408284,0.029585798816568046,0.0,0.0,0.011834319526627219,0.029585798816568046,0.02514792899408284,0.028106508875739646,0.026627218934911243,0.029585798816568046,0.02514792899408284,0.004437869822485207,0.0,0.0,0.026627218934911243,0.03994082840236687,0.03550295857988166,0.028106508875739646,0.010355029585798817,0.034023668639053255,0.0073964497041420114,0.029585798816568046,0.03698224852071006,0.0,0.011834319526627219,0.01775147928994083,0.005917159763313609,0.028106508875739646,0.034023668639053255,0.0,0.026627218934911243,0.026627218934911243,0.023668639053254437,0.011834319526627219,0.028106508875739646,0.0,0.0
S1_D3 hbo,0.03056768558951965,0.07860262008733625,0.0,0.0,0.015283842794759825,0.013100436681222707,0.06986899563318777,0.03056768558951965,0.028384279475982533,0.004366812227074236,0.0,0.008733624454148471,0.013100436681222707,0.06331877729257641,0.019650655021834062,0.015283842794759825,0.024017467248908297,0.0,0.0,0.0,0.015283842794759825,0.008733624454148471,0.013100436681222707,0.010917030567685589,0.015283842794759825,0.008733624454148471,0.0,0.028384279475982533,0.034934497816593885,0.017467248908296942,0.028384279475982533,0.03056768558951965,0.04148471615720524,0.004366812227074236,0.021834061135371178,0.034934497816593885,0.026200873362445413,0.05021834061135371,0.0,0.0,0.024017467248908297,0.0,0.010917030567685589,0.021834061135371178,0.03275109170305677,0.015283842794759825,0.017467248908296942,0.015283842794759825,0.013100436681222707,0.043668122270742356,0.0,0.0
S2_D1 hbo,0.0,0.0,0.027932960893854747,0.0260707635009311,0.0297951582867784,0.0260707635009311,0.0,0.0,0.027932960893854747,0.027932960893854747,0.0260707635009311,0.0297951582867784,0.020484171322160148,0.0,0.0260707635009311,0.01675977653631285,0.0260707635009311,0.0,0.0223463687150838,0.0223463687150838,0.01303538175046555,0.020484171322160148,0.024208566108007448,0.020484171322160148,0.024208566108007448,0.020484171322160148,0.027932960893854747,0.0297951582867784,0.0,0.027932960893854747,0.00931098696461825,0.020484171322160148,0.024208566108007448,0.01675977653631285,0.027932960893854747,0.0,0.0223463687150838,0.01303538175046555,0.027932960893854747,0.027932960893854747,0.027932960893854747,0.0260707635009311,0.027932960893854747,0.020484171322160148,0.0,0.0297951582867784,0.0297951582867784,0.0,0.0,0.027932960893854747,0.0297951582867784,0.0260707635009311
S2_D2 hbo,0.0,0.0,0.02835538752362949,0.026465028355387523,0.02835538752362949,0.026465028355387523,0.0,0.0,0.02835538752362949,0.02835538752362949,0.026465028355387523,0.02835538752362949,0.020793950850661626,0.0,0.026465028355387523,0.017013232514177693,0.026465028355387523,0.0,0.022684310018903593,0.022684310018903593,0.013232514177693762,0.020793950850661626,0.024574669187145556,0.020793950850661626,0.022684310018903593,0.020793950850661626,0.02835538752362949,0.02835538752362949,0.0,0.02835538752362949,0.00945179584120983,0.020793950850661626,0.024574669187145556,0.017013232514177693,0.02835538752362949,0.0,0.022684310018903593,0.013232514177693762,0.02835538752362949,0.02835538752362949,0.02835538752362949,0.026465028355387523,0.02835538752362949,0.020793950850661626,0.0,0.02835538752362949,0.02835538752362949,0.0,0.0,0.02835538752362949,0.02835538752362949,0.024574669187145556
S2_D4 hbo,0.01440922190201729,0.004803073967339097,0.01440922190201729,0.013448607108549471,0.029779058597502402,0.027857829010566763,0.01440922190201729,0.0,0.026897214217098942,0.024975984630163303,0.013448607108549471,0.027857829010566763,0.024975984630163303,0.012487992315081652,0.027857829010566763,0.023054755043227664,0.027857829010566763,0.0,0.011527377521613832,0.01729106628242075,0.021133525456292025,0.023054755043227664,0.026897214217098942,0.024015369836695485,0.02881844380403458,0.023054755043227664,0.01440922190201729,0.01729106628242075,0.0,0.02881844380403458,0.01921229586935639,0.024975984630163303,0.024015369836695485,0.01536983669548511,0.02881844380403458,0.004803073967339097,0.024975984630163303,0.021133525456292025,0.01440922190201729,0.021133525456292025,0.024015369836695485,0.013448607108549471,0.027857829010566763,0.024975984630163303,0.0,0.03170028818443804,0.03170028818443804,0.01440922190201729,0.007684918347742555,0.02881844380403458,0.01633045148895293,0.01536983669548511
S3_D1 hbo,0.01637852593266606,0.003639672429481347,0.01364877161055505,0.012738853503184714,0.025477707006369428,0.03184713375796178,0.014558689717925387,0.0,0.028207461328480437,0.029117379435850774,0.012738853503184714,0.0272975432211101,0.026387625113739762,0.01091901728844404,0.029117379435850774,0.02183803457688808,0.025477707006369428,0.0,0.01091901728844404,0.018198362147406732,0.022747952684258416,0.025477707006369428,0.028207461328480437,0.026387625113739762,0.0272975432211101,0.025477707006369428,0.01910828025477707,0.01364877161055505,0.0,0.0272975432211101,0.02183803457688808,0.02456778889899909,0.02183803457688808,0.014558689717925387,0.03002729754322111,0.004549590536851683,0.022747952684258416,0.022747952684258416,0.01364877161055505,0.020928116469517744,0.02456778889899909,0.01910828025477707,0.030937215650591446,0.026387625113739762,0.0,0.028207461328480437,0.0272975432211101,0.012738853503184714,0.006369426751592357,0.0272975432211101,0.01364877161055505,0.011828935395814377
S3_D3 hbo,0.02836004932182491,0.03822441430332922,0.0,0.0,0.018495684340320593,0.02219482120838471,0.051787916152897656,0.01726263871763255,0.030826140567200986,0.01726263871763255,0.0,0.018495684340320593,0.02219482120838471,0.03945745992601726,0.025893958076448828,0.02096177558569667,0.02466091245376079,0.0,0.0,0.009864364981504316,0.02342786683107275,0.01972872996300863,0.02219482120838471,0.02096177558569667,0.02342786683107275,0.01972872996300863,0.0012330456226880395,0.016029593094944512,0.01972872996300863,0.02219482120838471,0.02836004932182491,0.027127003699136867,0.025893958076448828,0.008631319358816275,0.027127003699136867,0.025893958076448828,0.02342786683107275,0.04192355117139334,0.0,0.009864364981504316,0.027127003699136867,0.002466091245376079,0.02096177558569667,0.027127003699136867,0.018495684340320593,0.02219482120838471,0.02219482120838471,0.01972872996300863,0.009864364981504316,0.036991368680641186,0.0,0.0
S3_D4 hbo,0.0,0.04142011834319527,0.0,0.0,0.0,0.0,0.04142011834319527,0.12130177514792899,0.05917159763313609,0.0,0.0,0.0,0.0,0.05621301775147929,0.020710059171597635,0.020710059171597635,0.0,0.05621301775147929,0.0,0.005917159763313609,0.06804733727810651,0.020710059171597635,0.020710059171597635,0.0,0.0,0.0,0.0,0.029585798816568046,0.038461538461538464,0.0,0.0,0.0,0.011834319526627219,0.005917159763313609,0.0,0.038461538461538464,0.04437869822485207,0.05621301775147929,0.026627218934911243,0.0,0.029585798816568046,0.026627218934911243,0.011834319526627219,0.0,0.0621301775147929,0.0,0.0,0.05029585798816568,0.014792899408284023,0.020710059171597635,0.0,0.0
S3_D5 hbo,0.013050570962479609,0.00897226753670473,0.012234910277324634,0.011419249592169658,0.02202283849918434,0.024469820554649267,0.018760195758564437,0.015497553017944535,0.041598694942903754,0.024469820554649267,0.011419249592169658,0.024469820554649267,0.02202283849918434,0.02202283849918434,0.030179445350734094,0.024469820554649267,0.021207177814029365,0.004078303425774877,0.009787928221859706,0.01794453507340946,0.024469820554649267,0.028548123980424143,0.02936378466557912,0.02202283849918434,0.02365415986949429,0.02202283849918434,0.013866231647634585,0.020391517128874388,0.00734094616639478,0.022838499184339316,0.017128874388254486,0.020391517128874388,0.020391517128874388,0.01468189233278956,0.02528548123980424,0.011419249592169658,0.018760195758564437,0.024469820554649267,0.012234910277324634,0.018760195758564437,0.02936378466557912,0.013866231647634585,0.028548123980424143,0.02202283849918434,0.00734094616639478,0.024469820554649267,0.02365415986949429,0.015497553017944535,0.008156606851549755,0.024469820554649267,0.013050570962479609,0.011419249592169658
S4_D2 hbo,0.014300306435137897,0.0,0.015321756894790603,0.014300306435137897,0.02553626149131767,0.031664964249233915,0.012257405515832482,0.0,0.028600612870275793,0.031664964249233915,0.014300306435137897,0.028600612870275793,0.02553626149131767,0.008171603677221655,0.028600612870275793,0.020429009193054137,0.024514811031664963,0.0,0.012257405515832482,0.020429009193054137,0.021450459652706845,0.02553626149131767,0.027579162410623085,0.02553626149131767,0.027579162410623085,0.02553626149131767,0.020429009193054137,0.01634320735444331,0.0,0.026557711950970377,0.020429009193054137,0.02349336057201226,0.020429009193054137,0.015321756894790603,0.0296220633299285,0.005107252298263534,0.021450459652706845,0.021450459652706845,0.015321756894790603,0.02349336057201226,0.027579162410623085,0.020429009193054137,0.030643513789581207,0.02553626149131767,0.0,0.028600612870275793,0.027579162410623085,0.010214504596527068,0.0030643513789581204,0.026557711950970377,0.01634320735444331,0.014300306435137897
S4_D4 hbo,0.0,0.0,0.02626970227670753,0.024518388791593695,0.02626970227670753,0.024518388791593695,0.0,0.0,0.02626970227670753,0.02626970227670753,0.04903677758318739,0.02626970227670753,0.01926444833625219,0.0,0.024518388791593695,0.01576182136602452,0.024518388791593695,0.0,0.021015761821366025,0.021015761821366025,0.012259194395796848,0.01926444833625219,0.02276707530647986,0.01926444833625219,0.021015761821366025,0.01926444833625219,0.02626970227670753,0.02626970227670753,0.0,0.02626970227670753,0.008756567425569177,0.01926444833625219,0.02276707530647986,0.01576182136602452,0.02626970227670753,0.0,0.02276707530647986,0.012259194395796848,0.04903677758318739,0.02626970227670753,0.02626970227670753,0.03152364273204904,0.02626970227670753,0.01926444833625219,0.0,0.02626970227670753,0.02626970227670753,0.0,0.0,0.02626970227670753,0.02626970227670753,0.040280210157618214
S4_D6 hbo,0.014691478942213516,0.0019588638589618022,0.014691478942213516,0.013712047012732615,0.02742409402546523,0.02840352595494613,0.013712047012732615,0.0,0.029382957884427033,0.02840352595494613,0.013712047012732615,0.029382957884427033,0.025465230166503428,0.009794319294809012,0.02840352595494613,0.021547502448579822,0.025465230166503428,0.0,0.011753183153770812,0.019588638589618023,0.021547502448579822,0.025465230166503428,0.02742409402546523,0.025465230166503428,0.02840352595494613,0.025465230166503428,0.015670910871694418,0.01665034280117532,0.0,0.02742409402546523,0.019588638589618023,0.024485798237022526,0.021547502448579822,0.015670910871694418,0.029382957884427033,0.004897159647404506,0.022526934378060724,0.021547502448579822,0.014691478942213516,0.022526934378060724,0.02644466209598433,0.015670910871694418,0.029382957884427033,0.025465230166503428,0.0,0.030362389813907934,0.029382957884427033,0.011753183153770812,0.004897159647404506,0.02742409402546523,0.01665034280117532,0.014691478942213516
S4_D11 hbo,0.01768172888015717,0.003929273084479371,0.011787819253438114,0.011787819253438114,0.02455795677799607,0.030451866404715127,0.015717092337917484,0.0,0.0275049115913556,0.0275049115913556,0.011787819253438114,0.026522593320235755,0.02848722986247544,0.011787819253438114,0.029469548133595286,0.023575638506876228,0.025540275049115914,0.0,0.011787819253438114,0.019646365422396856,0.02455795677799607,0.0275049115913556,0.029469548133595286,0.02848722986247544,0.026522593320235755,0.0275049115913556,0.014734774066797643,0.011787819253438114,0.0,0.026522593320235755,0.023575638506876228,0.026522593320235755,0.022593320235756387,0.015717092337917484,0.029469548133595286,0.004911591355599214,0.02455795677799607,0.02455795677799607,0.011787819253438114,0.019646365422396856,0.023575638506876228,0.015717092337917484,0.030451866404715127,0.0275049115913556,0.0,0.0275049115913556,0.026522593320235755,0.0137524557956778,0.0068762278978389,0.026522593320235755,0.011787819253438114,0.009823182711198428
S5_D3 hbo,0.02531645569620253,0.03222094361334868,0.0,0.0,0.01726121979286536,0.01611047180667434,0.039125431530494824,0.023014959723820484,0.03222094361334868,0.011507479861910242,0.0,0.01380897583429229,0.01611047180667434,0.05868814729574223,0.02761795166858458,0.0379746835443038,0.02186421173762946,0.014959723820483314,0.0,0.005753739930955121,0.0333716915995397,0.03452243958573072,0.0333716915995397,0.024165707710011506,0.020713463751438434,0.01380897583429229,0.0,0.012658227848101266,0.01611047180667434,0.018411967779056387,0.024165707710011506,0.02531645569620253,0.028768699654775604,0.00805523590333717,0.020713463751438434,0.02186421173762946,0.023014959723820484,0.03567318757192175,0.0,0.01611047180667434,0.028768699654775604,0.00805523590333717,0.01726121979286536,0.020713463751438434,0.014959723820483314,0.01726121979286536,0.018411967779056387,0.02761795166858458,0.01611047180667434,0.026467203682393557,0.0,0.0
S5_D5 hbo,0.017170891251022075,0.005723630417007359,0.012264922322158627,0.011447260834014717,0.024529844644317254,0.027800490596892886,0.01553556827473426,0.004905968928863451,0.03107113654946852,0.025347506132461162,0.011447260834014717,0.024529844644317254,0.024529844644317254,0.018806214227309895,0.03434178250204415,0.027800490596892886,0.025347506132461162,0.004088307440719542,0.009811937857726901,0.016353229762878167,0.02698282910874898,0.029435813573180702,0.03188879803761243,0.023712183156173343,0.02616516762060507,0.022894521668029435,0.014717906786590351,0.012264922322158627,0.0,0.02698282910874898,0.022076860179885527,0.024529844644317254,0.022076860179885527,0.013082583810302535,0.029435813573180702,0.004088307440719542,0.022894521668029435,0.022894521668029435,0.012264922322158627,0.018806214227309895,0.022076860179885527,0.014717906786590351,0.027800490596892886,0.02616516762060507,0.0,0.02698282910874898,0.02698282910874898,0.018806214227309895,0.006541291905151268,0.02698282910874898,0.012264922322158627,0.01062959934587081
S5_D7 hbo,0.014821272885789015,0.004359197907585004,0.008718395815170008,0.008718395815170008,0.020924149956408022,0.023539668700959023,0.014821272885789015,0.0052310374891020054,0.02789886660854403,0.02005231037489102,0.008718395815170008,0.021795989537925022,0.023539668700959023,0.026155187445510025,0.02964254577157803,0.044463818657367045,0.021795989537925022,0.018308631211857017,0.008718395815170008,0.015693112467306015,0.03574542284219703,0.042720139494333044,0.04010462074978204,0.03225806451612903,0.026155187445510025,0.021795989537925022,0.008718395815170008,0.008718395815170008,0.0,0.022667829119442023,0.01918047079337402,0.023539668700959023,0.01918047079337402,0.013949433304272014,0.023539668700959023,0.004359197907585004,0.020924149956408022,0.020924149956408022,0.008718395815170008,0.022667829119442023,0.025283347863993024,0.01918047079337402,0.02789886660854403,0.021795989537925022,0.0,0.023539668700959023,0.022667829119442023,0.021795989537925022,0.015693112467306015,0.022667829119442023,0.008718395815170008,0.006974716652136007
S6_D4 hbo,0.017857142857142856,0.008035714285714285,0.013392857142857142,0.0125,0.026785714285714284,0.026785714285714284,0.017857142857142856,0.0,0.025892857142857145,0.024107142857142858,0.0125,0.025892857142857145,0.024107142857142858,0.015178571428571428,0.029464285714285714,0.023214285714285715,0.029464285714285714,0.0,0.010714285714285714,0.016964285714285713,0.02142857142857143,0.022321428571428572,0.025892857142857145,0.023214285714285715,0.025892857142857145,0.022321428571428572,0.013392857142857142,0.013392857142857142,0.0,0.029464285714285714,0.022321428571428572,0.027678571428571427,0.025892857142857145,0.014285714285714285,0.03125,0.004464285714285714,0.027678571428571427,0.024107142857142858,0.014285714285714285,0.020535714285714286,0.023214285714285715,0.013392857142857142,0.026785714285714284,0.027678571428571427,0.0,0.029464285714285714,0.029464285714285714,0.014285714285714285,0.008035714285714285,0.030357142857142857,0.014285714285714285,0.0125
S6_D5 hbo,0.0,0.0,0.0,0.0,0.0,0.0,0.0,0.0707070707070707,0.02356902356902357,0.0,0.0,0.0,0.0,0.04713804713804714,0.020202020202020204,0.07744107744107744,0.0,0.12457912457912458,0.0,0.003367003367003367,0.10101010101010101,0.06397306397306397,0.06060606060606061,0.037037037037037035,0.020202020202020204,0.0,0.0,0.0,0.0,0.0,0.0,0.0,0.0,0.003367003367003367,0.0,0.0,0.037037037037037035,0.02356902356902357,0.030303030303030304,0.026936026936026935,0.02356902356902357,0.07744107744107744,0.02356902356902357,0.0,0.026936026936026935,0.0,0.0,0.04040404040404041,0.037037037037037035,0.0,0.0,0.0
S6_D6 hbo,0.0,0.0,0.026804123711340205,0.026804123711340205,0.026804123711340205,0.026804123711340205,0.0,0.0,0.026804123711340205,0.026804123711340205,0.026804123711340205,0.026804123711340205,0.02268041237113402,0.0,0.026804123711340205,0.018556701030927835,0.026804123711340205,0.0,0.024742268041237112,0.024742268041237112,0.01443298969072165,0.02268041237113402,0.026804123711340205,0.02268041237113402,0.020618556701030927,0.02268041237113402,0.026804123711340205,0.026804123711340205,0.0,0.026804123711340205,0.010309278350515464,0.02268041237113402,0.026804123711340205,0.018556701030927835,0.026804123711340205,0.0,0.024742268041237112,0.01443298969072165,0.026804123711340205,0.026804123711340205,0.026804123711340205,0.026804123711340205,0.026804123711340205,0.02268041237113402,0.0,0.026804123711340205,0.026804123711340205,0.0,0.0,0.026804123711340205,0.026804123711340205,0.02268041237113402
S6_D8 hbo,0.01084010840108401,0.0,0.017615176151761516,0.017615176151761516,0.023035230352303523,0.028455284552845527,0.009485094850948509,0.0040650406504065045,0.032520325203252036,0.028455284552845527,0.017615176151761516,0.02710027100271003,0.025745257452574527,0.0040650406504065045,0.028455284552845527,0.02032520325203252,0.024390243902439025,0.0,0.016260162601626018,0.028455284552845527,0.02168021680216802,0.025745257452574527,0.028455284552845527,0.025745257452574527,0.024390243902439025,0.025745257452574527,0.018970189701897018,0.017615176151761516,0.0,0.025745257452574527,0.017615176151761516,0.024390243902439025,0.02032520325203252,0.016260162601626018,0.028455284552845527,0.0013550135501355014,0.02168021680216802,0.02032520325203252,0.017615176151761516,0.025745257452574527,0.02710027100271003,0.02032520325203252,0.032520325203252036,0.025745257452574527,0.0,0.02710027100271003,0.025745257452574527,0.006775067750677507,0.0040650406504065045,0.025745257452574527,0.017615176151761516,0.014905149051490514
S7_D5 hbo,0.016225448334756618,0.004269854824935952,0.005977796754910333,0.005977796754910333,0.017933390264730998,0.02305721605465414,0.014517506404782237,0.02134927412467976,0.027327070879590094,0.01964133219470538,0.005977796754910333,0.018787361229718188,0.02220324508966695,0.02391118701964133,0.028181041844577284,0.033304867634500426,0.018787361229718188,0.025619128949615714,0.005977796754910333,0.014517506404782237,0.05636208368915457,0.035012809564474806,0.04355251921434671,0.029035012809564473,0.025619128949615714,0.02049530315969257,0.008539709649871904,0.005977796754910333,0.0,0.01964133219470538,0.017933390264730998,0.02049530315969257,0.016225448334756618,0.011955593509820665,0.02220324508966695,0.004269854824935952,0.030742954739538857,0.025619128949615714,0.013663535439795047,0.01964133219470538,0.02220324508966695,0.02391118701964133,0.026473099914602904,0.02220324508966695,0.007685738684884714,0.02049530315969257,0.01964133219470538,0.027327070879590094,0.017933390264730998,0.01964133219470538,0.005977796754910333,0.005977796754910333
S7_D7 hbo,0.013769363166953529,0.0017211703958691911,0.010327022375215147,0.010327022375215147,0.019793459552495698,0.02495697074010327,0.012048192771084338,0.0051635111876075735,0.029259896729776247,0.024096385542168676,0.010327022375215147,0.022375215146299483,0.02323580034423408,0.02323580034423408,0.030120481927710843,0.0387263339070568,0.020654044750430294,0.01549053356282272,0.010327022375215147,0.01721170395869191,0.03442340791738382,0.043029259896729774,0.039586919104991396,0.03270223752151463,0.02667814113597246,0.02323580034423408,0.012908777969018933,0.010327022375215147,0.0,0.021514629948364887,0.0189328743545611,0.021514629948364887,0.018072289156626505,0.013769363166953529,0.024096385542168676,0.004302925989672977,0.019793459552495698,0.019793459552495698,0.010327022375215147,0.024096385542168676,0.02667814113597246,0.022375215146299483,0.029259896729776247,0.022375215146299483,0.0008605851979345956,0.022375215146299483,0.021514629948364887,0.019793459552495698,0.012048192771084338,0.021514629948364887,0.010327022375215147,0.008605851979345954
S7_D8 hbo,0.014342629482071713,0.0031872509960159364,0.011155378486055778,0.011155378486055778,0.02151394422310757,0.026294820717131476,0.012749003984063745,0.004780876494023904,0.02948207171314741,0.02390438247011952,0.011155378486055778,0.023107569721115537,0.023107569721115537,0.02151394422310757,0.031075697211155377,0.0350597609561753,0.022310756972111555,0.013545816733067729,0.009561752988047808,0.01593625498007968,0.035856573705179286,0.035856573705179286,0.04462151394422311,0.02948207171314741,0.02549800796812749,0.022310756972111555,0.013545816733067729,0.011155378486055778,0.0,0.023107569721115537,0.019123505976095617,0.02151394422310757,0.019123505976095617,0.012749003984063745,0.02549800796812749,0.00398406374501992,0.0199203187250996,0.0199203187250996,0.011155378486055778,0.02390438247011952,0.02549800796812749,0.0199203187250996,0.027888446215139442,0.023107569721115537,0.0,0.02390438247011952,0.023107569721115537,0.016733067729083666,0.012749003984063745,0.023107569721115537,0.011155378486055778,0.009561752988047808
S8_D6 hbo,0.015232974910394265,0.002688172043010753,0.010752688172043012,0.010752688172043012,0.021505376344086023,0.026881720430107527,0.013440860215053764,0.0,0.025089605734767026,0.025089605734767026,0.010752688172043012,0.024193548387096774,0.025089605734767026,0.017025089605734768,0.025985663082437275,0.03046594982078853,0.022401433691756272,0.00985663082437276,0.010752688172043012,0.017921146953405017,0.03136200716845878,0.03494623655913978,0.03494623655913978,0.0456989247311828,0.027777777777777776,0.025089605734767026,0.013440860215053764,0.010752688172043012,0.0,0.023297491039426525,0.02060931899641577,0.023297491039426525,0.01971326164874552,0.014336917562724014,0.025985663082437275,0.004480286738351254,0.021505376344086023,0.021505376344086023,0.010752688172043012,0.025089605734767026,0.027777777777777776,0.022401433691756272,0.03046594982078853,0.024193548387096774,0.0,0.024193548387096774,0.023297491039426525,0.011648745519713262,0.012544802867383513,0.023297491039426525,0.010752688172043012,0.008960573476702509
S8_D8 hbo,0.017924528301886792,0.0047169811320754715,0.010377358490566037,0.009433962264150943,0.02547169811320755,0.02830188679245283,0.016037735849056604,0.0,0.02547169811320755,0.02547169811320755,0.009433962264150943,0.02547169811320755,0.024528301886792454,0.016981132075471698,0.027358490566037737,0.02547169811320755,0.02358490566037736,0.005660377358490566,0.007547169811320755,0.01509433962264151,0.029245283018867925,0.02830188679245283,0.031132075471698113,0.029245283018867925,0.03773584905660377,0.022641509433962263,0.013207547169811321,0.014150943396226415,0.0,0.02547169811320755,0.01981132075471698,0.022641509433962263,0.01981132075471698,0.011320754716981131,0.02830188679245283,0.0047169811320754715,0.020754716981132074,0.020754716981132074,0.010377358490566037,0.02169811320754717,0.026415094339622643,0.018867924528301886,0.03207547169811321,0.026415094339622643,0.0,0.029245283018867925,0.03018867924528302,0.014150943396226415,0.013207547169811321,0.02547169811320755,0.012264150943396227,0.016037735849056604
S8_D15 hbo,0.016701461377870562,0.0020876826722338203,0.012526096033402923,0.012526096033402923,0.024008350730688934,0.030271398747390398,0.014613778705636743,0.0,0.028183716075156576,0.029227557411273485,0.012526096033402923,0.027139874739039668,0.028183716075156576,0.010438413361169102,0.029227557411273485,0.022964509394572025,0.025052192066805846,0.0,0.012526096033402923,0.020876826722338204,0.024008350730688934,0.028183716075156576,0.029227557411273485,0.028183716075156576,0.026096033402922755,0.028183716075156576,0.015657620041753653,0.012526096033402923,0.0,0.026096033402922755,0.022964509394572025,0.026096033402922755,0.021920668058455117,0.016701461377870562,0.029227557411273485,0.005219206680584551,0.024008350730688934,0.024008350730688934,0.012526096033402923,0.020876826722338204,0.025052192066805846,0.016701461377870562,0.030271398747390398,0.027139874739039668,0.0,0.027139874739039668,0.026096033402922755,0.012526096033402923,0.005219206680584551,0.026096033402922755,0.012526096033402923,0.010438413361169102
S9_D2 hbo,0.0017152658662092624,0.0,0.025728987993138937,0.024013722126929673,0.0274442538593482,0.030874785591766724,0.0,0.0,0.025728987993138937,0.030874785591766724,0.024013722126929673,0.0274442538593482,0.02058319039451115,0.0,0.025728987993138937,0.015437392795883362,0.024013722126929673,0.0,0.02058319039451115,0.02058319039451115,0.0137221269296741,0.02058319039451115,0.024013722126929673,0.02058319039451115,0.024013722126929673,0.02058319039451115,0.04974271012006861,0.0274442538593482,0.0,0.025728987993138937,0.012006861063464836,0.018867924528301886,0.022298456260720412,0.015437392795883362,0.0274442538593482,0.0,0.02058319039451115,0.0137221269296741,0.025728987993138937,0.025728987993138937,0.025728987993138937,0.03945111492281304,0.029159519725557463,0.02058319039451115,0.0,0.0274442538593482,0.0274442538593482,0.0,0.0,0.025728987993138937,0.0274442538593482,0.024013722126929673
S9_D9 hbo,0.0,0.02109704641350211,0.02109704641350211,0.01969057665260197,0.02390998593530239,0.01969057665260197,0.02109704641350211,0.016877637130801686,0.03375527426160337,0.02109704641350211,0.01969057665260197,0.02250351617440225,0.015471167369901548,0.01828410689170183,0.01969057665260197,0.012658227848101266,0.01969057665260197,0.0,0.016877637130801686,0.016877637130801686,0.009845288326300985,0.015471167369901548,0.01828410689170183,0.015471167369901548,0.02390998593530239,0.015471167369901548,0.02109704641350211,0.05063291139240506,0.02531645569620253,0.02109704641350211,0.007032348804500703,0.015471167369901548,0.02390998593530239,0.012658227848101266,0.02109704641350211,0.02109704641350211,0.016877637130801686,0.02250351617440225,0.02109704641350211,0.02109704641350211,0.035161744022503515,0.01969057665260197,0.02109704641350211,0.015471167369901548,0.01969057665260197,0.02531645569620253,0.02812939521800281,0.0,0.0,0.026722925457102673,0.02390998593530239,0.02531645569620253
S9_D11 hbo,0.0,0.0962566844919786,0.0,0.0,0.0,0.0,0.0962566844919786,0.08021390374331551,0.053475935828877004,0.0,0.0,0.0,0.0,0.0748663101604278,0.0,0.0,0.0,0.0,0.0,0.0053475935828877,0.0053475935828877,0.0,0.0,0.0,0.0,0.0,0.0,0.09090909090909091,0.12834224598930483,0.0,0.0,0.0,0.0213903743315508,0.0053475935828877,0.0,0.09090909090909091,0.0,0.058823529411764705,0.0,0.0,0.053475935828877004,0.0,0.0053475935828877,0.0,0.08021390374331551,0.0,0.0,0.0,0.016042780748663103,0.0374331550802139,0.0,0.0
S10_D9 hbo,0.016319129646418858,0.005439709882139619,0.013599274705349048,0.012692656391659111,0.028105167724388033,0.028105167724388033,0.016319129646418858,0.0,0.027198549410698096,0.025385312783318223,0.012692656391659111,0.028105167724388033,0.025385312783318223,0.012692656391659111,0.02901178603807797,0.02357207615593835,0.027198549410698096,0.0,0.010879419764279238,0.01813236627379873,0.022665457842248413,0.02357207615593835,0.027198549410698096,0.024478694469628286,0.028105167724388033,0.02357207615593835,0.013599274705349048,0.014505893019038985,0.0,0.02901178603807797,0.02085222121486854,0.02629193109700816,0.02357207615593835,0.014505893019038985,0.029918404351767906,0.004533091568449683,0.024478694469628286,0.022665457842248413,0.013599274705349048,0.02085222121486854,0.024478694469628286,0.013599274705349048,0.028105167724388033,0.02629193109700816,0.0,0.030825022665457842,0.029918404351767906,0.014505893019038985,0.007252946509519492,0.02901178603807797,0.014505893019038985,0.012692656391659111
S10_D10 hbo,0.027502750275027504,0.0121012101210121,0.006600660066006601,0.006600660066006601,0.0231023102310231,0.0297029702970297,0.025302530253025302,0.0,0.0242024202420242,0.025302530253025302,0.006600660066006601,0.0231023102310231,0.027502750275027504,0.020902090209020903,0.030803080308030802,0.025302530253025302,0.028602860286028604,0.0,0.006600660066006601,0.015401540154015401,0.025302530253025302,0.025302530253025302,0.027502750275027504,0.026402640264026403,0.025302530253025302,0.025302530253025302,0.011001100110011002,0.006600660066006601,0.0,0.026402640264026403,0.034103410341034104,0.0319031903190319,0.026402640264026403,0.014301430143014302,0.0319031903190319,0.005500550055005501,0.028602860286028604,0.034103410341034104,0.006600660066006601,0.015401540154015401,0.019801980198019802,0.0121012101210121,0.027502750275027504,0.0297029702970297,0.0,0.026402640264026403,0.026402640264026403,0.0176017601760176,0.0088008800880088,0.027502750275027504,0.006600660066006601,0.0044004400440044
S10_D12 hbo,0.02254283137962128,0.010820559062218215,0.010820559062218215,0.010820559062218215,0.024346257889990983,0.027051397655545536,0.020739404869251576,0.0,0.025247971145175834,0.023444544634806132,0.010820559062218215,0.024346257889990983,0.026149684400360685,0.018034265103697024,0.029756537421100092,0.023444544634806132,0.028854824165915238,0.0,0.010820559062218215,0.018034265103697024,0.023444544634806132,0.024346257889990983,0.027051397655545536,0.025247971145175834,0.025247971145175834,0.024346257889990983,0.011722272317403066,0.010820559062218215,0.0,0.027051397655545536,0.027051397655545536,0.031559963931469794,0.027953110910730387,0.014427412082957619,0.030658250676284943,0.004508566275924256,0.028854824165915238,0.027953110910730387,0.010820559062218215,0.018034265103697024,0.02164111812443643,0.012623985572587917,0.026149684400360685,0.028854824165915238,0.0,0.027051397655545536,0.027051397655545536,0.014427412082957619,0.007213706041478809,0.027953110910730387,0.010820559062218215,0.009017132551848512
S11_D9 hbo,0.019390581717451522,0.01662049861495845,0.012927054478301015,0.012927054478301015,0.02585410895660203,0.024930747922437674,0.02123730378578024,0.003693444136657433,0.024007386888273315,0.02123730378578024,0.012927054478301015,0.023084025854108958,0.0221606648199446,0.024007386888273315,0.027700831024930747,0.02123730378578024,0.029547553093259463,0.0,0.0110803324099723,0.014773776546629732,0.019390581717451522,0.020313942751615882,0.024007386888273315,0.02123730378578024,0.023084025854108958,0.020313942751615882,0.012927054478301015,0.01569713758079409,0.003693444136657433,0.02677746999076639,0.023084025854108958,0.029547553093259463,0.034164358264081256,0.014773776546629732,0.028624192059095107,0.008310249307479225,0.028624192059095107,0.027700831024930747,0.012927054478301015,0.017543859649122806,0.023084025854108958,0.012927054478301015,0.024007386888273315,0.02585410895660203,0.003693444136657433,0.02585410895660203,0.02677746999076639,0.012927054478301015,0.007386888273314866,0.03139427516158818,0.012927054478301015,0.0110803324099723
S11_D11 hbo,0.010703363914373088,0.0,0.01529051987767584,0.01529051987767584,0.02599388379204893,0.02599388379204893,0.010703363914373088,0.0045871559633027525,0.03058103975535168,0.02599388379204893,0.01529051987767584,0.02599388379204893,0.02599388379204893,0.010703363914373088,0.02599388379204893,0.024464831804281346,0.02599388379204893,0.0,0.01529051987767584,0.022935779816513763,0.022935779816513763,0.02599388379204893,0.02599388379204893,0.02599388379204893,0.021406727828746176,0.02599388379204893,0.01529051987767584,0.01529051987767584,0.0015290519877675841,0.02599388379204893,0.01834862385321101,0.02599388379204893,0.02599388379204893,0.02599388379204893,0.02599388379204893,0.00764525993883792,0.02599388379204893,0.021406727828746176,0.01529051987767584,0.021406727828746176,0.02599388379204893,0.01529051987767584,0.03058103975535168,0.022935779816513763,0.0,0.02599388379204893,0.02599388379204893,0.010703363914373088,0.010703363914373088,0.02599388379204893,0.01529051987767584,0.012232415902140673
S11_D12 hbo,0.01870748299319728,0.006802721088435374,0.012755102040816327,0.011904761904761904,0.026360544217687076,0.02891156462585034,0.017006802721088437,0.0,0.026360544217687076,0.026360544217687076,0.011904761904761904,0.026360544217687076,0.025510204081632654,0.013605442176870748,0.030612244897959183,0.022108843537414966,0.027210884353741496,0.0,0.01020408163265306,0.017006802721088437,0.02295918367346939,0.023809523809523808,0.027210884353741496,0.02465986394557823,0.02806122448979592,0.023809523809523808,0.015306122448979591,0.013605442176870748,0.0,0.02806122448979592,0.023809523809523808,0.026360544217687076,0.023809523809523808,0.013605442176870748,0.031462585034013606,0.004251700680272109,0.02465986394557823,0.02465986394557823,0.012755102040816327,0.0195578231292517,0.02295918367346939,0.015306122448979591,0.02891156462585034,0.02806122448979592,0.0,0.02891156462585034,0.02891156462585034,0.013605442176870748,0.006802721088435374,0.02891156462585034,0.013605442176870748,0.011904761904761904
S11_D13 hbo,0.012224938875305624,0.04156479217603912,0.0024449877750611247,0.0024449877750611247,0.014669926650366748,0.014669926650366748,0.05378973105134474,0.034229828850855744,0.03667481662591687,0.014669926650366748,0.0024449877750611247,0.014669926650366748,0.014669926650366748,0.04645476772616137,0.014669926650366748,0.014669926650366748,0.014669926650366748,0.0,0.0024449877750611247,0.009779951100244499,0.012224938875305624,0.014669926650366748,0.014669926650366748,0.014669926650366748,0.012224938875305624,0.014669926650366748,0.0024449877750611247,0.034229828850855744,0.039119804400977995,0.014669926650366748,0.014669926650366748,0.014669926650366748,0.02444987775061125,0.012224938875305624,0.014669926650366748,0.10268948655256724,0.014669926650366748,0.04156479217603912,0.0024449877750611247,0.012224938875305624,0.039119804400977995,0.0024449877750611247,0.014669926650366748,0.012224938875305624,0.06356968215158924,0.014669926650366748,0.014669926650366748,0.012224938875305624,0.0024449877750611247,0.03178484107579462,0.0024449877750611247,0.0
S12_D10 hbo,0.01693480101608806,0.00846740050804403,0.01100762066045724,0.01100762066045724,0.023708721422523286,0.023708721422523286,0.01693480101608806,0.013547840812870448,0.02201524132091448,0.02032176121930567,0.011854360711261643,0.02201524132091448,0.02201524132091448,0.015241320914479255,0.026248941574936496,0.021168501270110076,0.0279424216765453,0.01100762066045724,0.010160880609652836,0.015241320914479255,0.03302286198137172,0.02032176121930567,0.023708721422523286,0.021168501270110076,0.02201524132091448,0.02032176121930567,0.01100762066045724,0.01100762066045724,0.0,0.02540220152413209,0.021168501270110076,0.026248941574936496,0.02540220152413209,0.013547840812870448,0.027095681625740897,0.004233700254022015,0.04826418289585097,0.029635901778154106,0.021168501270110076,0.01693480101608806,0.01947502116850127,0.021168501270110076,0.02286198137171888,0.02540220152413209,0.007620660457239628,0.02540220152413209,0.02540220152413209,0.02286198137171888,0.007620660457239628,0.026248941574936496,0.012701100762066046,0.01100762066045724
S12_D12 hbo,0.02079722703639515,0.018197573656845753,0.006932409012131715,0.006932409012131715,0.01993067590987868,0.024263431542461005,0.02859618717504333,0.01559792027729636,0.02512998266897747,0.02079722703639515,0.006932409012131715,0.01993067590987868,0.02339688041594454,0.02339688041594454,0.025996533795493933,0.021663778162911613,0.024263431542461005,0.006932409012131715,0.006932409012131715,0.01386481802426343,0.02859618717504333,0.021663778162911613,0.02339688041594454,0.022530329289428077,0.021663778162911613,0.021663778162911613,0.009532062391681109,0.012998266897746967,0.008665511265164644,0.022530329289428077,0.025996533795493933,0.025996533795493933,0.02512998266897747,0.012998266897746967,0.026863084922010397,0.012998266897746967,0.030329289428076257,0.0415944540727903,0.01386481802426343,0.01386481802426343,0.02339688041594454,0.016464471403812825,0.02339688041594454,0.02512998266897747,0.014731369150779897,0.022530329289428077,0.022530329289428077,0.01993067590987868,0.006932409012131715,0.029462738301559793,0.006932409012131715,0.005199306759098787
S12_D14 hbo,0.0,0.0,0.022488755622188907,0.020989505247376312,0.0239880059970015,0.020989505247376312,0.0,0.013493253373313344,0.022488755622188907,0.022488755622188907,0.043478260869565216,0.0239880059970015,0.01649175412293853,0.0,0.020989505247376312,0.013493253373313344,0.020989505247376312,0.013493253373313344,0.017991004497751123,0.017991004497751123,0.0239880059970015,0.01649175412293853,0.019490254872563718,0.01649175412293853,0.019490254872563718,0.01649175412293853,0.022488755622188907,0.0239880059970015,0.0,0.022488755622188907,0.0074962518740629685,0.01649175412293853,0.019490254872563718,0.013493253373313344,0.022488755622188907,0.0,0.034482758620689655,0.019490254872563718,0.05997001499250375,0.022488755622188907,0.022488755622188907,0.046476761619190406,0.022488755622188907,0.01649175412293853,0.01199400299850075,0.025487256371814093,0.0239880059970015,0.008995502248875561,0.0014992503748125937,0.022488755622188907,0.026986506746626688,0.037481259370314844
S13_D6 hbo,0.009205983889528193,0.0,0.01726121979286536,0.01611047180667434,0.024165707710011506,0.02531645569620253,0.009205983889528193,0.0,0.026467203682393557,0.026467203682393557,0.01611047180667434,0.02761795166858458,0.02186421173762946,0.011507479861910242,0.02531645569620253,0.02761795166858458,0.023014959723820484,0.009205983889528193,0.01380897583429229,0.023014959723820484,0.026467203682393557,0.031070195627157654,0.0333716915995397,0.02991944764096663,0.026467203682393557,0.02186421173762946,0.01726121979286536,0.018411967779056387,0.0,0.02531645569620253,0.014959723820483314,0.02186421173762946,0.018411967779056387,0.012658227848101266,0.026467203682393557,0.0023014959723820483,0.019562715765247412,0.01726121979286536,0.01726121979286536,0.0333716915995397,0.03222094361334868,0.024165707710011506,0.02761795166858458,0.02186421173762946,0.0,0.02761795166858458,0.026467203682393557,0.006904487917146145,0.005753739930955121,0.02531645569620253,0.018411967779056387,0.01611047180667434
S13_D11 hbo,0.01078167115902965,0.008984725965858042,0.013477088948787063,0.012578616352201259,0.0215633423180593,0.02336028751123091,0.018867924528301886,0.009883198562443846,0.031446540880503145,0.02425876010781671,0.012578616352201259,0.02425876010781671,0.020664869721473494,0.0215633423180593,0.02336028751123091,0.02336028751123091,0.020664869721473494,0.006289308176100629,0.01078167115902965,0.018867924528301886,0.02425876010781671,0.026954177897574125,0.028751123090745734,0.026954177897574125,0.025157232704402517,0.020664869721473494,0.014375561545372867,0.022461814914645103,0.008984725965858042,0.022461814914645103,0.015274034141958671,0.019766397124887692,0.020664869721473494,0.013477088948787063,0.02425876010781671,0.013477088948787063,0.017969451931716084,0.025157232704402517,0.013477088948787063,0.026954177897574125,0.036837376460017966,0.020664869721473494,0.026954177897574125,0.020664869721473494,0.008984725965858042,0.02425876010781671,0.02336028751123091,0.008086253369272238,0.008086253369272238,0.02605570530098832,0.014375561545372867,0.012578616352201259
S13_D13 hbo,0.00245398773006135,0.0,0.018404907975460124,0.01717791411042945,0.018404907975460124,0.023312883435582823,0.0,0.011042944785276074,0.0196319018404908,0.023312883435582823,0.024539877300613498,0.018404907975460124,0.015950920245398775,0.0098159509202454,0.0196319018404908,0.026993865030674847,0.01717791411042945,0.029447852760736196,0.014723926380368098,0.014723926380368098,0.0343558282208589,0.03067484662576687,0.029447852760736196,0.029447852760736196,0.024539877300613498,0.015950920245398775,0.03190184049079755,0.018404907975460124,0.0,0.018404907975460124,0.0098159509202454,0.013496932515337423,0.015950920245398775,0.011042944785276074,0.020858895705521473,0.0,0.02822085889570552,0.01717791411042945,0.03680981595092025,0.02822085889570552,0.026993865030674847,0.06503067484662577,0.029447852760736196,0.015950920245398775,0.007361963190184049,0.0196319018404908,0.018404907975460124,0.006134969325153374,0.013496932515337423,0.018404907975460124,0.020858895705521473,0.018404907975460124
S13_D15 hbo,0.014517506404782237,0.0025619128949615714,0.012809564474807857,0.011955593509820665,0.02391118701964133,0.028181041844577284,0.012809564474807857,0.0034158838599487617,0.030742954739538857,0.027327070879590094,0.011955593509820665,0.026473099914602904,0.02391118701964133,0.012809564474807857,0.026473099914602904,0.024765157984628524,0.02305721605465414,0.005123825789923143,0.010247651579846286,0.018787361229718188,0.025619128949615714,0.029035012809564473,0.029035012809564473,0.029035012809564473,0.030742954739538857,0.02391118701964133,0.016225448334756618,0.013663535439795047,0.0,0.024765157984628524,0.01964133219470538,0.02220324508966695,0.01964133219470538,0.015371477369769428,0.027327070879590094,0.004269854824935952,0.02134927412467976,0.02049530315969257,0.013663535439795047,0.02220324508966695,0.026473099914602904,0.02220324508966695,0.035866780529461996,0.02391118701964133,0.0,0.027327070879590094,0.025619128949615714,0.011101622544833475,0.015371477369769428,0.024765157984628524,0.014517506404782237,0.012809564474807857
S14_D12 hbo,0.02109300095877277,0.007670182166826462,0.010546500479386385,0.010546500479386385,0.024928092042186004,0.029721955896452542,0.019175455417066157,0.0,0.02588686481303931,0.02588686481303931,0.010546500479386385,0.024928092042186004,0.02588686481303931,0.015340364333652923,0.031639501438159155,0.02205177372962608,0.027804410354745925,0.0,0.00862895493767977,0.016299137104506232,0.02588686481303931,0.023969319271332695,0.027804410354745925,0.024928092042186004,0.029721955896452542,0.023969319271332695,0.013422818791946308,0.010546500479386385,0.0,0.027804410354745925,0.023969319271332695,0.026845637583892617,0.023969319271332695,0.012464046021093002,0.031639501438159155,0.004793863854266539,0.02588686481303931,0.024928092042186004,0.011505273250239693,0.01821668264621285,0.02205177372962608,0.015340364333652923,0.028763183125599234,0.030680728667305847,0.0,0.028763183125599234,0.027804410354745925,0.015340364333652923,0.00862895493767977,0.028763183125599234,0.011505273250239693,0.011505273250239693
S14_D13 hbo,0.0,0.05338078291814947,0.0,0.0,0.0,0.0,0.05338078291814947,0.08185053380782918,0.03202846975088968,0.0,0.0035587188612099642,0.0,0.0,0.0498220640569395,0.0,0.0,0.0,0.03202846975088968,0.0,0.0,0.03202846975088968,0.0,0.0,0.0,0.0,0.0,0.0,0.042704626334519574,0.05338078291814947,0.0,0.0,0.0,0.014234875444839857,0.0,0.0,0.09252669039145907,0.03202846975088968,0.06405693950177936,0.042704626334519574,0.0,0.03558718861209965,0.03558718861209965,0.0,0.0,0.17793594306049823,0.0,0.0,0.0498220640569395,0.0,0.021352313167259787,0.0,0.0
S14_D14 hbo,0.015971606033717833,0.0044365572315882874,0.013309671694764862,0.012422360248447204,0.027506654835847383,0.02839396628216504,0.015084294587400177,0.0,0.027506654835847383,0.025732031943212066,0.012422360248447204,0.027506654835847383,0.025732031943212066,0.011535048802129548,0.02839396628216504,0.022182786157941437,0.025732031943212066,0.0,0.01064773735581189,0.01774622892635315,0.022182786157941437,0.023957409050576754,0.027506654835847383,0.024844720496894408,0.030168589174800354,0.023957409050576754,0.01419698314108252,0.01685891748003549,0.0,0.027506654835847383,0.02040816326530612,0.024844720496894408,0.022182786157941437,0.01419698314108252,0.029281277728482696,0.0044365572315882874,0.023957409050576754,0.022182786157941437,0.015084294587400177,0.02040816326530612,0.023957409050576754,0.015971606033717833,0.02839396628216504,0.025732031943212066,0.0,0.03194321206743567,0.031055900621118012,0.013309671694764862,0.007985803016858917,0.027506654835847383,0.01685891748003549,0.01685891748003549
S14_D16 hbo,0.016574585635359115,0.0055248618784530384,0.01289134438305709,0.011970534069981584,0.0285451197053407,0.027624309392265192,0.016574585635359115,0.0,0.026703499079189688,0.024861878453038673,0.011970534069981584,0.027624309392265192,0.024861878453038673,0.01289134438305709,0.0285451197053407,0.02302025782688766,0.026703499079189688,0.0,0.010128913443830571,0.017495395948434623,0.02302025782688766,0.02302025782688766,0.026703499079189688,0.02394106813996317,0.03222836095764273,0.02302025782688766,0.01289134438305709,0.016574585635359115,0.0,0.0285451197053407,0.020257826887661142,0.02578268876611418,0.02302025782688766,0.013812154696132596,0.029465930018416207,0.004604051565377533,0.02394106813996317,0.022099447513812154,0.01289134438305709,0.020257826887661142,0.02394106813996317,0.01289134438305709,0.027624309392265192,0.026703499079189688,0.0,0.03222836095764273,0.03314917127071823,0.014732965009208104,0.007366482504604052,0.0285451197053407,0.014732965009208104,0.017495395948434623
S15_D13 hbo,0.023054755043227664,0.007204610951008645,0.0,0.0,0.020172910662824207,0.023054755043227664,0.023054755043227664,0.024495677233429394,0.027377521613832854,0.01729106628242075,0.0,0.020172910662824207,0.023054755043227664,0.02881844380403458,0.03025936599423631,0.0345821325648415,0.021613832853025938,0.01729106628242075,0.0,0.010086455331412104,0.04755043227665706,0.03314121037463977,0.03025936599423631,0.021613832853025938,0.023054755043227664,0.020172910662824207,0.0,0.0,0.001440922190201729,0.023054755043227664,0.023054755043227664,0.023054755043227664,0.01729106628242075,0.010086455331412104,0.023054755043227664,0.007204610951008645,0.03890489913544669,0.0345821325648415,0.01440922190201729,0.011527377521613832,0.01585014409221902,0.011527377521613832,0.021613832853025938,0.023054755043227664,0.025936599423631124,0.023054755043227664,0.023054755043227664,0.06484149855907781,0.012968299711815562,0.023054755043227664,0.0,0.0
S15_D15 hbo,0.018912529550827423,0.009456264775413711,0.0,0.0,0.018912529550827423,0.018912529550827423,0.018912529550827423,0.009456264775413711,0.030732860520094562,0.01182033096926714,0.0,0.016548463356973995,0.018912529550827423,0.037825059101654845,0.018912529550827423,0.0425531914893617,0.018912529550827423,0.02364066193853428,0.0,0.004728132387706856,0.05200945626477541,0.04018912529550828,0.04728132387706856,0.0425531914893617,0.03309692671394799,0.016548463356973995,0.0,0.0,0.002364066193853428,0.018912529550827423,0.018912529550827423,0.018912529550827423,0.018912529550827423,0.016548463356973995,0.018912529550827423,0.0070921985815602835,0.02127659574468085,0.018912529550827423,0.004728132387706856,0.018912529550827423,0.026004728132387706,0.028368794326241134,0.04018912529550828,0.018912529550827423,0.0,0.02127659574468085,0.018912529550827423,0.018912529550827423,0.06382978723404255,0.018912529550827423,0.004728132387706856,0.004728132387706856
S15_D16 hbo,0.015966386554621848,0.015126050420168067,0.012605042016806723,0.011764705882352941,0.026050420168067228,0.026050420168067228,0.023529411764705882,0.004201680672268907,0.025210084033613446,0.023529411764705882,0.011764705882352941,0.026050420168067228,0.023529411764705882,0.015966386554621848,0.02773109243697479,0.021848739495798318,0.026050420168067228,0.0,0.010084033613445379,0.01680672268907563,0.02100840336134454,0.021848739495798318,0.025210084033613446,0.0226890756302521,0.026050420168067228,0.021848739495798318,0.012605042016806723,0.015126050420168067,0.004201680672268907,0.02773109243697479,0.020168067226890758,0.025210084033613446,0.024369747899159664,0.013445378151260505,0.02857142857142857,0.008403361344537815,0.024369747899159664,0.026050420168067228,0.013445378151260505,0.019327731092436976,0.024369747899159664,0.013445378151260505,0.026050420168067228,0.025210084033613446,0.0033613445378151263,0.029411764705882353,0.02857142857142857,0.013445378151260505,0.007563025210084034,0.03613445378151261,0.014285714285714285,0.012605042016806723
S16_D14 hbo,0.0,0.0,0.026785714285714284,0.025,0.030357142857142857,0.025,0.0,0.0,0.026785714285714284,0.026785714285714284,0.025,0.02857142857142857,0.019642857142857142,0.0,0.025,0.01607142857142857,0.025,0.0,0.02142857142857143,0.02142857142857143,0.0125,0.019642857142857142,0.023214285714285715,0.019642857142857142,0.026785714285714284,0.019642857142857142,0.026785714285714284,0.03214285714285714,0.0,0.026785714285714284,0.008928571428571428,0.019642857142857142,0.023214285714285715,0.01607142857142857,0.026785714285714284,0.0,0.023214285714285715,0.0125,0.030357142857142857,0.026785714285714284,0.026785714285714284,0.02857142857142857,0.026785714285714284,0.019642857142857142,0.0,0.033928571428571426,0.03214285714285714,0.0,0.0017857142857142857,0.026785714285714284,0.033928571428571426,0.03214285714285714
S16_D16 hbo,0.0,0.0,0.025052192066805846,0.022964509394572025,0.029227557411273485,0.022964509394572025,0.0,0.0,0.025052192066805846,0.025052192066805846,0.03966597077244259,0.027139874739039668,0.016701461377870562,0.0,0.022964509394572025,0.012526096033402923,0.022964509394572025,0.0,0.018789144050104383,0.018789144050104383,0.014613778705636743,0.016701461377870562,0.020876826722338204,0.016701461377870562,0.03549060542797495,0.016701461377870562,0.025052192066805846,0.033402922755741124,0.0,0.025052192066805846,0.0041753653444676405,0.016701461377870562,0.020876826722338204,0.012526096033402923,0.025052192066805846,0.0,0.020876826722338204,0.008350730688935281,0.04384133611691023,0.025052192066805846,0.025052192066805846,0.027139874739039668,0.025052192066805846,0.020876826722338204,0.0,0.033402922755741124,0.03549060542797495,0.0,0.0020876826722338203,0.025052192066805846,0.033402922755741124,0.060542797494780795
