,S1_D1 hbo,S1_D3 hbo,S2_D1 hbo,S2_D2 hbo,S2_D4 hbo,S3_D1 hbo,S3_D3 hbo,S3_D4 hbo,S3_D5 hbo,S4_D2 hbo,S4_D4 hbo,S4_D6 hbo,S4_D11 hbo,S5_D3 hbo,S5_D5 hbo,S5_D7 hbo,S6_D4 hbo,S6_D5 hbo,S6_D6 hbo,S6_D8 hbo,S7_D5 hbo,S7_D7 hbo,S7_D8 hbo,S8_D6 hbo,S8_D8 hbo,S8_D15 hbo,S9_D2 hbo,S9_D9 hbo,S9_D11 hbo,S10_D9 hbo,S10_D10 hbo,S10_D12 hbo,S11_D9 hbo,S11_D11 hbo,S11_D12 hbo,S11_D13 hbo,S12_D10 hbo,S12_D12 hbo,S12_D14 hbo,S13_D6 hbo,S13_D11 hbo,S13_D13 hbo,S13_D15 hbo,S14_D12 hbo,S14_D13 hbo,S14_D14 hbo,S14_D16 hbo,S15_D13 hbo,S15_D15 hbo,S15_D16 hbo,S16_D14 hbo,S16_D16 hbo
S1_D1 hbo,0.1549636803874092,0.12832929782082325,0.08958837772397095,0.007263922518159807,0.007263922518159807,0.13559322033898305,0.026634382566585957,0.0,0.0,0.0,0.002421307506053269,0.0,0.0,0.0,0.0,0.0,0.0,0.0,0.0,0.0,0.0,0.0,0.0,0.0,0.0,0.0,0.012106537530266344,0.01937046004842615,0.007263922518159807,0.0,0.1162227602905569,0.0,0.0,0.0,0.0,0.0,0.13317191283292978,0.1016949152542373,0.026634382566585957,0.0,0.0,0.0,0.0,0.0,0.002421307506053269,0.01937046004842615,0.0,0.0,0.002421307506053269,0.0,0.007263922518159807,0.0
S1_D3 hbo,0.04919583727530748,0.07095553453169347,0.03500473036896878,0.013245033112582781,0.013245033112582781,0.041627246925260174,0.0293282876064333,0.013245033112582781,0.014191106906338695,0.013245033112582781,0.011352885525070956,0.017975402081362345,0.014191106906338695,0.01892147587511826,0.011352885525070956,0.017029328287606435,0.01892147587511826,0.01892147587511826,0.021759697256385997,0.01608325449385052,0.0,0.017029328287606435,0.011352885525070956,0.011352885525070956,0.015137180700094607,0.008514664143803218,0.01229895931882687,0.011352885525070956,0.013245033112582781,0.017975402081362345,0.03405865657521287,0.017975402081362345,0.020813623462630087,0.014191106906338695,0.01608325449385052,0.01608325449385052,0.04068117313150426,0.04446546830652791,0.017975402081362345,0.01608325449385052,0.01892147587511826,0.01608325449385052,0.014191106906338695,0.015137180700094607,0.017975402081362345,0.017029328287606435,0.01608325449385052,0.015137180700094607,0.01229895931882687,0.013245033112582781,0.013245033112582781,0.014191106906338695
S2_D1 hbo,0.0225825130283729,0.020845396641574986,0.042848870874348584,0.024319629415170817,0.0225825130283729,0.024898668210770122,0.02605674580196873,0.021424435437174292,0.017371163867979156,0.020845396641574986,0.022003474232773594,0.019687319050376375,0.01795020266357846,0.005790387955993051,0.01563404748118124,0.004632310364794441,0.01563404748118124,0.019687319050376375,0.01679212507237985,0.01563404748118124,0.013896931094383324,0.005790387955993051,0.015055008685581933,0.01447596988998263,0.01795020266357846,0.003474232773595831,0.024898668210770122,0.026635784597568036,0.023161551823972205,0.0225825130283729,0.024898668210770122,0.0225825130283729,0.019687319050376375,0.020845396641574986,0.022003474232773594,0.017371163867979156,0.024898668210770122,0.030110017371163866,0.01563404748118124,0.01795020266357846,0.02026635784597568,0.01910828025477707,0.015055008685581933,0.02026635784597568,0.022003474232773594,0.024898668210770122,0.016213086276780544,0.018529241459177764,0.019687319050376375,0.016213086276780544,0.011001737116386797,0.01563404748118124
S2_D2 hbo,0.00218435998252512,0.00436871996505024,0.018785495849716033,0.02839667977282656,0.026649191786806466,0.003931847968545216,0.016601135867190912,0.025775447793796417,0.023154215814766274,0.025775447793796417,0.02708606378331149,0.02490170380078637,0.021406727828746176,0.007426823940585408,0.01616426387068589,0.003931847968545216,0.019659239842726082,0.023154215814766274,0.020096111839231105,0.018785495849716033,0.01310615989515072,0.009174311926605505,0.020096111839231105,0.02053298383573613,0.023591087811271297,0.010048055919615552,0.02839667977282656,0.028833551769331587,0.025338575797291395,0.027959807776321538,0.003931847968545216,0.026649191786806466,0.022717343818261248,0.02621231979030144,0.025775447793796417,0.020096111839231105,0.003931847968545216,0.008300567933595456,0.009174311926605505,0.023591087811271297,0.025338575797291395,0.02490170380078637,0.021843599825251202,0.023154215814766274,0.02621231979030144,0.024464831804281346,0.022280471821756225,0.023591087811271297,0.024464831804281346,0.021406727828746176,0.00873743993010048,0.017911751856705984
S2_D4 hbo,0.002131287297527707,0.005115089514066497,0.017902813299232736,0.027280477408354646,0.027706734867860187,0.0038363171355498722,0.016624040920716114,0.027280477408354646,0.023444160272804774,0.0247229326513214,0.026854219948849106,0.023870417732310314,0.020460358056265986,0.008098891730605285,0.017050298380221655,0.004688832054560955,0.01918158567774936,0.02216538789428815,0.020034100596760442,0.0196078431372549,0.013640238704177323,0.00980392156862745,0.021739130434782608,0.02216538789428815,0.0247229326513214,0.010656436487638534,0.026854219948849106,0.028132992327365727,0.024296675191815855,0.026854219948849106,0.0038363171355498722,0.02600170502983802,0.02216538789428815,0.02557544757033248,0.026427962489343565,0.020034100596760442,0.0038363171355498722,0.008951406649616368,0.008951406649616368,0.02514919011082694,0.024296675191815855,0.023870417732310314,0.021739130434782608,0.023870417732310314,0.026427962489343565,0.0247229326513214,0.021739130434782608,0.023017902813299233,0.0247229326513214,0.021739130434782608,0.008525149190110827,0.017476555839727195
S3_D1 hbo,0.11860940695296524,0.09406952965235174,0.08384458077709611,0.014314928425357873,0.014314928425357873,0.12269938650306748,0.022494887525562373,0.0081799591002045,0.0,0.002044989775051125,0.010224948875255624,0.0,0.0,0.0,0.0,0.0,0.0,0.0,0.0,0.0,0.00408997955010225,0.0,0.0,0.0,0.0,0.0,0.018404907975460124,0.024539877300613498,0.014314928425357873,0.0081799591002045,0.10633946830265849,0.0081799591002045,0.0,0.006134969325153374,0.006134969325153374,0.0,0.12065439672801637,0.09406952965235174,0.03067484662576687,0.0,0.0,0.0,0.0,0.0081799591002045,0.010224948875255624,0.024539877300613498,0.0,0.0,0.010224948875255624,0.0,0.014314928425357873,0.0
S3_D3 hbo,0.005623721881390593,0.014826175869120654,0.02198364008179959,0.02147239263803681,0.020961145194274028,0.005623721881390593,0.02965235173824131,0.022494887525562373,0.022494887525562373,0.022494887525562373,0.02044989775051125,0.025051124744376277,0.02147239263803681,0.012269938650306749,0.018404907975460124,0.007668711656441718,0.019938650306748466,0.024539877300613498,0.02147239263803681,0.02044989775051125,0.012269938650306749,0.011758691206543968,0.020961145194274028,0.019938650306748466,0.023517382413087935,0.007157464212678937,0.02147239263803681,0.02198364008179959,0.020961145194274028,0.023517382413087935,0.005623721881390593,0.02556237218813906,0.025051124744376277,0.023517382413087935,0.024028629856850715,0.02198364008179959,0.005623721881390593,0.014314928425357873,0.010224948875255624,0.023517382413087935,0.02556237218813906,0.025051124744376277,0.02044989775051125,0.022494887525562373,0.02556237218813906,0.024028629856850715,0.022494887525562373,0.024028629856850715,0.019938650306748466,0.020961145194274028,0.007668711656441718,0.019427402862985686
S3_D4 hbo,0.0008133387555917039,0.005286701911346075,0.015453436356242375,0.02480683204554697,0.025620170801138674,0.0024400162667751117,0.01708011386742578,0.027246848312322082,0.02480683204554697,0.023993493289955266,0.025620170801138674,0.023993493289955266,0.021553477023180154,0.009353395689304595,0.01667344448962993,0.004880032533550223,0.019520130134200894,0.022366815778771858,0.019926799511996746,0.019926799511996746,0.013826758845058967,0.010980073200488003,0.02277348515656771,0.023180154534363562,0.026026840178934526,0.011386742578283855,0.025213501423342822,0.027653517690117934,0.023993493289955266,0.026433509556730378,0.0024400162667751117,0.025620170801138674,0.021960146400976006,0.026433509556730378,0.02684017893452623,0.02074013826758845,0.0024400162667751117,0.0077267181781211875,0.008133387555917039,0.025213501423342822,0.024400162667751118,0.02480683204554697,0.023586823912159414,0.025213501423342822,0.02684017893452623,0.023993493289955266,0.022366815778771858,0.023586823912159414,0.025213501423342822,0.023180154534363562,0.008133387555917039,0.018300122000813338
S3_D5 hbo,0.0,0.005686789151356081,0.012248468941382326,0.023184601924759404,0.023184601924759404,0.0,0.01706036745406824,0.02537182852143482,0.0284339457567804,0.024059492563429572,0.023184601924759404,0.024934383202099737,0.02230971128608924,0.010061242344706912,0.017497812773403325,0.005249343832020997,0.01968503937007874,0.023184601924759404,0.020122484689413824,0.020122484689413824,0.013560804899387576,0.011811023622047244,0.024496937882764653,0.02537182852143482,0.027559055118110236,0.012248468941382326,0.023622047244094488,0.026246719160104987,0.022747156605424323,0.02537182852143482,0.0,0.024496937882764653,0.022747156605424323,0.026246719160104987,0.026246719160104987,0.02230971128608924,0.0,0.005686789151356081,0.006561679790026247,0.02537182852143482,0.024934383202099737,0.025809273840769902,0.02668416447944007,0.02537182852143482,0.025809273840769902,0.023622047244094488,0.024934383202099737,0.024934383202099737,0.02668416447944007,0.025809273840769902,0.006561679790026247,0.020559930008748905
S4_D2 hbo,0.0,0.004860804242156429,0.015908086610693768,0.02695536897923111,0.024745912505523642,0.0013256738842244808,0.017675651789659744,0.02562969509500663,0.023862129916040652,0.0273972602739726,0.02695536897923111,0.02562969509500663,0.02342023862129916,0.008395934600088379,0.01723376049491825,0.004418912947414936,0.0207688908528502,0.024304021210782147,0.0207688908528502,0.019885108263367212,0.012814847547503314,0.010163499779054353,0.0207688908528502,0.021210782147591693,0.024304021210782147,0.011489173663278833,0.027839151568714096,0.02828104286345559,0.02562969509500663,0.0273972602739726,0.0013256738842244808,0.026513477684489615,0.02342023862129916,0.026513477684489615,0.02562969509500663,0.021210782147591693,0.0013256738842244808,0.0061864781263809105,0.007070260715863898,0.023862129916040652,0.026513477684489615,0.02562969509500663,0.023862129916040652,0.022978347326557666,0.02562969509500663,0.022536456031816175,0.022978347326557666,0.024745912505523642,0.023862129916040652,0.02209456473707468,0.007070260715863898,0.019001325673884226
S4_D4 hbo,0.0013186813186813187,0.004395604395604396,0.017582417582417582,0.027252747252747254,0.026813186813186812,0.003076923076923077,0.016703296703296705,0.026813186813186812,0.023296703296703296,0.025934065934065935,0.028131868131868132,0.024175824175824177,0.02197802197802198,0.007912087912087912,0.016703296703296705,0.003956043956043956,0.01978021978021978,0.022857142857142857,0.01978021978021978,0.01934065934065934,0.013626373626373627,0.00967032967032967,0.0210989010989011,0.021538461538461538,0.024615384615384615,0.01098901098901099,0.028131868131868132,0.02945054945054945,0.025934065934065935,0.027252747252747254,0.003076923076923077,0.025934065934065935,0.02197802197802198,0.026373626373626374,0.025934065934065935,0.02021978021978022,0.003076923076923077,0.0074725274725274725,0.007912087912087912,0.024175824175824177,0.025054945054945054,0.024615384615384615,0.023296703296703296,0.023736263736263738,0.026373626373626374,0.023736263736263738,0.02197802197802198,0.023296703296703296,0.024615384615384615,0.021538461538461538,0.007912087912087912,0.017582417582417582
S4_D6 hbo,0.0,0.006097560975609756,0.014227642276422764,0.024390243902439025,0.023577235772357725,0.0004065040650406504,0.019105691056910568,0.025203252032520326,0.024390243902439025,0.025609756097560974,0.024390243902439025,0.026829268292682926,0.023170731707317073,0.01056910569105691,0.016666666666666666,0.005691056910569106,0.022357723577235773,0.025609756097560974,0.022357723577235773,0.02113821138211382,0.01097560975609756,0.012195121951219513,0.02195121951219512,0.022357723577235773,0.025203252032520326,0.012195121951219513,0.024390243902439025,0.024796747967479674,0.023170731707317073,0.026422764227642278,0.0004065040650406504,0.026829268292682926,0.024796747967479674,0.025609756097560974,0.026016260162601626,0.022357723577235773,0.0004065040650406504,0.0065040650406504065,0.007317073170731708,0.025203252032520326,0.027642276422764227,0.026422764227642278,0.023577235772357725,0.023170731707317073,0.025609756097560974,0.022357723577235773,0.023983739837398373,0.025609756097560974,0.02195121951219512,0.022357723577235773,0.0065040650406504065,0.01991869918699187
S4_D11 hbo,0.0,0.0062082139446036294,0.014804202483285577,0.02387774594078319,0.022922636103151862,0.0,0.018147086914995225,0.02387774594078319,0.024355300859598854,0.02626552053486151,0.024355300859598854,0.025787965616045846,0.02626552053486151,0.010506208213944603,0.018147086914995225,0.0057306590257879654,0.022922636103151862,0.02626552053486151,0.022922636103151862,0.022922636103151862,0.009551098376313277,0.012416427889207259,0.021012416427889206,0.02148997134670487,0.024355300859598854,0.013371537726838587,0.025787965616045846,0.02626552053486151,0.027220630372492838,0.025787965616045846,0.0,0.024832855778414518,0.024355300859598854,0.025787965616045846,0.02387774594078319,0.023400191021967526,0.0,0.0062082139446036294,0.0071633237822349575,0.023400191021967526,0.02626552053486151,0.025787965616045846,0.024355300859598854,0.021967526265520534,0.024832855778414518,0.02148997134670487,0.023400191021967526,0.025310410697230182,0.022445081184336198,0.022445081184336198,0.0071633237822349575,0.021967526265520534
S5_D3 hbo,0.0,0.015100671140939598,0.009228187919463088,0.01761744966442953,0.01761744966442953,0.0,0.02097315436241611,0.02097315436241611,0.022651006711409395,0.01929530201342282,0.016778523489932886,0.025167785234899327,0.02181208053691275,0.025167785234899327,0.016778523489932886,0.012583892617449664,0.026006711409395974,0.026845637583892617,0.026845637583892617,0.024328859060402684,0.0,0.025167785234899327,0.020134228187919462,0.020134228187919462,0.022651006711409395,0.016778523489932886,0.01761744966442953,0.018456375838926176,0.020134228187919462,0.02097315436241611,0.0,0.026006711409395974,0.025167785234899327,0.02181208053691275,0.02348993288590604,0.025167785234899327,0.0,0.014261744966442953,0.016778523489932886,0.02348993288590604,0.025167785234899327,0.025167785234899327,0.02348993288590604,0.024328859060402684,0.026845637583892617,0.024328859060402684,0.025167785234899327,0.024328859060402684,0.01929530201342282,0.022651006711409395,0.012583892617449664,0.022651006711409395
S5_D5 hbo,0.0,0.007281553398058253,0.016383495145631068,0.024271844660194174,0.024271844660194174,0.0,0.020024271844660196,0.02487864077669903,0.02487864077669903,0.02487864077669903,0.024271844660194174,0.02487864077669903,0.021844660194174758,0.010922330097087379,0.023058252427184466,0.006674757281553398,0.018810679611650484,0.023058252427184466,0.020024271844660196,0.021237864077669904,0.012742718446601941,0.012135922330097087,0.022451456310679612,0.023058252427184466,0.02487864077669903,0.010315533980582525,0.02487864077669903,0.024271844660194174,0.023058252427184466,0.02487864077669903,0.0,0.02487864077669903,0.024271844660194174,0.02487864077669903,0.02487864077669903,0.02366504854368932,0.0,0.007281553398058253,0.007281553398058253,0.024271844660194174,0.02487864077669903,0.02487864077669903,0.023058252427184466,0.02487864077669903,0.02487864077669903,0.02487864077669903,0.024271844660194174,0.02487864077669903,0.024271844660194174,0.024271844660194174,0.007281553398058253,0.021844660194174758
S5_D7 hbo,0.0,0.027417027417027416,0.015873015873015872,0.01875901875901876,0.020202020202020204,0.0,0.021645021645021644,0.020202020202020204,0.020202020202020204,0.01875901875901876,0.017316017316017316,0.024531024531024532,0.020202020202020204,0.021645021645021644,0.017316017316017316,0.03463203463203463,0.024531024531024532,0.023088023088023088,0.027417027417027416,0.021645021645021644,0.0,0.021645021645021644,0.015873015873015872,0.017316017316017316,0.021645021645021644,0.012987012987012988,0.017316017316017316,0.015873015873015872,0.01875901875901876,0.031746031746031744,0.0,0.023088023088023088,0.02886002886002886,0.020202020202020204,0.023088023088023088,0.021645021645021644,0.0,0.021645021645021644,0.021645021645021644,0.021645021645021644,0.024531024531024532,0.021645021645021644,0.020202020202020204,0.021645021645021644,0.021645021645021644,0.021645021645021644,0.021645021645021644,0.021645021645021644,0.017316017316017316,0.01875901875901876,0.01875901875901876,0.020202020202020204
S6_D4 hbo,0.0,0.007554296506137866,0.013692162417374882,0.0226628895184136,0.021718602455146365,0.0,0.018885741265344664,0.023607176581680833,0.023135033050047216,0.02502360717658168,0.023135033050047216,0.027384324834749764,0.025495750708215296,0.013220018885741265,0.015580736543909348,0.007082152974504249,0.026912181303116147,0.02785646836638338,0.02644003777148253,0.024079320113314446,0.007082152974504249,0.015108593012275733,0.021246458923512748,0.021246458923512748,0.024551463644948063,0.014164305949008499,0.023135033050047216,0.023607176581680833,0.024079320113314446,0.02502360717658168,0.0,0.02644003777148253,0.025495750708215296,0.024079320113314446,0.024551463644948063,0.023607176581680833,0.0,0.007554296506137866,0.0084985835694051,0.02502360717658168,0.027384324834749764,0.02644003777148253,0.023135033050047216,0.021718602455146365,0.02502360717658168,0.02077431539187913,0.023607176581680833,0.02502360717658168,0.019830028328611898,0.021246458923512748,0.007082152974504249,0.02077431539187913
S6_D5 hbo,0.0,0.007121910347716799,0.013824884792626729,0.02262253875157101,0.02178466694595727,0.0,0.020108923334729786,0.02387934645999162,0.02346041055718475,0.024717218265605363,0.02304147465437788,0.026811897779639715,0.024298282362798494,0.012568077084206116,0.016757436112274822,0.006284038542103058,0.024298282362798494,0.027649769585253458,0.024298282362798494,0.02346041055718475,0.009216589861751152,0.014243820695433599,0.022203602848764138,0.022203602848764138,0.024717218265605363,0.012568077084206116,0.02346041055718475,0.02387934645999162,0.02387934645999162,0.024717218265605363,0.0,0.026392961876832845,0.025555090071219103,0.024298282362798494,0.024298282362798494,0.02387934645999162,0.0,0.007121910347716799,0.007959782153330541,0.025555090071219103,0.027230833682446585,0.026811897779639715,0.02387934645999162,0.022203602848764138,0.025974025974025976,0.02178466694595727,0.02387934645999162,0.025555090071219103,0.020527859237536656,0.022203602848764138,0.006284038542103058,0.020527859237536656
S6_D6 hbo,0.0,0.008550855085508551,0.01395139513951395,0.022952295229522954,0.022052205220522054,0.0,0.01935193519351935,0.023402340234023402,0.022952295229522954,0.023852385238523854,0.022052205220522054,0.027452745274527453,0.024302430243024302,0.013501350135013501,0.01575157515751575,0.00765076507650765,0.026552655265526554,0.0279027902790279,0.027452745274527453,0.024752475247524754,0.00765076507650765,0.0153015301530153,0.021602160216021602,0.021602160216021602,0.024302430243024302,0.013051305130513051,0.022052205220522054,0.022502250225022502,0.022952295229522954,0.025652565256525654,0.0,0.026552655265526554,0.026552655265526554,0.023852385238523854,0.024302430243024302,0.023402340234023402,0.0,0.00765076507650765,0.008550855085508551,0.025652565256525654,0.027452745274527453,0.026552655265526554,0.022502250225022502,0.021602160216021602,0.025652565256525654,0.02115211521152115,0.023402340234023402,0.025202520252025202,0.019801980198019802,0.021602160216021602,0.0067506750675067504,0.020702070207020702
S6_D8 hbo,0.0,0.007515265382808831,0.013621418506341005,0.02160638797557539,0.02160638797557539,0.0,0.018788163457022077,0.023954908407703146,0.023954908407703146,0.023015500234852042,0.02207609206200094,0.026303428839830906,0.024424612494128698,0.013621418506341005,0.01737905119774542,0.007045561296383279,0.024424612494128698,0.02677313292625646,0.02489431658055425,0.025364020666979802,0.008454673555659934,0.015500234852043212,0.023015500234852042,0.023485204321277594,0.025364020666979802,0.013621418506341005,0.02207609206200094,0.02254579614842649,0.023485204321277594,0.023954908407703146,0.0,0.025364020666979802,0.024424612494128698,0.024424612494128698,0.023954908407703146,0.02489431658055425,0.0,0.007515265382808831,0.007984969469234382,0.025364020666979802,0.025833724753405354,0.02677313292625646,0.023485204321277594,0.023015500234852042,0.025833724753405354,0.02160638797557539,0.024424612494128698,0.025833724753405354,0.020666979802724285,0.02254579614842649,0.006575857209957727,0.02160638797557539
S7_D5 hbo,0.0,0.0,0.02102376599634369,0.026508226691042046,0.0283363802559415,0.003656307129798903,0.02010968921389397,0.03016453382084095,0.029250457038391225,0.02376599634369287,0.027422303473491772,0.021937842778793418,0.016453382084095063,0.0,0.019195612431444242,0.0,0.011882998171846435,0.018281535648994516,0.013711151736745886,0.015539305301645339,0.03290676416819013,0.0,0.03016453382084095,0.0283363802559415,0.03016453382084095,0.0,0.026508226691042046,0.031078610603290677,0.021937842778793418,0.027422303473491772,0.003656307129798903,0.026508226691042046,0.02010968921389397,0.0283363802559415,0.031992687385740404,0.018281535648994516,0.003656307129798903,0.003656307129798903,0.003656307129798903,0.027422303473491772,0.022851919561243144,0.02376599634369287,0.02376599634369287,0.031078610603290677,0.029250457038391225,0.0283363802559415,0.02102376599634369,0.022851919561243144,0.031078610603290677,0.024680073126142597,0.003656307129798903,0.014625228519195612
S7_D7 hbo,0.0,0.01194921583271098,0.008215085884988798,0.018670649738610903,0.018670649738610903,0.0,0.01717699775952203,0.021657953696788648,0.02315160567587752,0.020164301717699777,0.017923823749066467,0.02539208364451083,0.022404779686333084,0.021657953696788648,0.014936519790888723,0.011202389843166542,0.026138909634055265,0.0268857356235997,0.0268857356235997,0.02539208364451083,0.0,0.02539208364451083,0.021657953696788648,0.021657953696788648,0.02315160567587752,0.017923823749066467,0.018670649738610903,0.019417475728155338,0.020911127707244213,0.021657953696788648,0.0,0.02539208364451083,0.024645257654966394,0.022404779686333084,0.02389843166542196,0.02539208364451083,0.0,0.01194921583271098,0.01344286781179985,0.024645257654966394,0.024645257654966394,0.0268857356235997,0.024645257654966394,0.024645257654966394,0.026138909634055265,0.022404779686333084,0.02539208364451083,0.026138909634055265,0.020164301717699777,0.02389843166542196,0.011202389843166542,0.02315160567587752
S7_D8 hbo,0.0,0.005427408412483039,0.011759384893713252,0.021709633649932156,0.02397105382180009,0.0,0.017639077340569877,0.026232473993668022,0.027589326096788783,0.022161917684305744,0.022614201718679332,0.024875621890547265,0.020805065581184983,0.010402532790592492,0.017639077340569877,0.005427408412483039,0.01990049751243781,0.023066485753052916,0.020805065581184983,0.021709633649932156,0.014925373134328358,0.012211668928086838,0.032564450474898234,0.02804161013116237,0.028493894165535955,0.012211668928086838,0.021709633649932156,0.024423337856173677,0.020805065581184983,0.02397105382180009,0.0,0.02532790592492085,0.023066485753052916,0.024875621890547265,0.027137042062415198,0.023066485753052916,0.0,0.005427408412483039,0.005427408412483039,0.027589326096788783,0.024423337856173677,0.025780189959294438,0.02532790592492085,0.026232473993668022,0.02668475802804161,0.023066485753052916,0.024423337856173677,0.02532790592492085,0.024875621890547265,0.024875621890547265,0.004522840343735866,0.019448213478064226
S8_D6 hbo,0.0,0.005466970387243736,0.011389521640091117,0.021867881548974944,0.02369020501138952,0.0,0.01685649202733485,0.02642369020501139,0.02824601366742597,0.022779043280182234,0.023234624145785875,0.025056947608200455,0.0214123006833713,0.010478359908883827,0.01776765375854214,0.005466970387243736,0.020045558086560365,0.023234624145785875,0.02050113895216401,0.0214123006833713,0.014123006833712985,0.012300683371298405,0.026879271070615034,0.027790432801822324,0.028701594533029614,0.013211845102505695,0.02232346241457859,0.025056947608200455,0.0214123006833713,0.02460136674259681,0.0,0.02460136674259681,0.02232346241457859,0.0255125284738041,0.02642369020501139,0.022779043280182234,0.0,0.005466970387243736,0.005466970387243736,0.02733485193621868,0.02460136674259681,0.025968109339407745,0.026879271070615034,0.025968109339407745,0.025968109339407745,0.022779043280182234,0.025056947608200455,0.025056947608200455,0.0255125284738041,0.0255125284738041,0.005011389521640091,0.020045558086560365
S8_D8 hbo,0.0,0.006257822277847309,0.012932832707551106,0.02252816020025031,0.023362536503963287,0.0,0.017939090529828953,0.025865665415102213,0.027117229870671673,0.023779724655819776,0.023779724655819776,0.025031289111389236,0.02252816020025031,0.010429703796412181,0.017104714226115977,0.005840634125990822,0.020859407592824362,0.023779724655819776,0.020859407592824362,0.02127659574468085,0.014184397163120567,0.012098456403838132,0.025448477263245724,0.025448477263245724,0.028368794326241134,0.012098456403838132,0.023362536503963287,0.025865665415102213,0.02252816020025031,0.025031289111389236,0.0,0.024614100959532748,0.0229453483521068,0.025865665415102213,0.026700041718815185,0.022110972048393827,0.0,0.006257822277847309,0.006675010429703796,0.026282853566958697,0.025448477263245724,0.025865665415102213,0.025448477263245724,0.025031289111389236,0.025865665415102213,0.0229453483521068,0.023779724655819776,0.025031289111389236,0.024614100959532748,0.023779724655819776,0.005840634125990822,0.019190654985398414
S8_D15 hbo,0.0,0.00807899461400359,0.00718132854578097,0.02244165170556553,0.02244165170556553,0.0,0.011669658886894075,0.02423698384201077,0.02423698384201077,0.026032315978456014,0.026032315978456014,0.025134649910233394,0.026929982046678635,0.01615798922800718,0.01526032315978456,0.00807899461400359,0.026032315978456014,0.026032315978456014,0.02423698384201077,0.02423698384201077,0.0,0.019748653500897665,0.02064631956912029,0.02333931777378815,0.025134649910233394,0.025134649910233394,0.02423698384201077,0.026032315978456014,0.026032315978456014,0.02423698384201077,0.0,0.02333931777378815,0.02244165170556553,0.025134649910233394,0.02244165170556553,0.02333931777378815,0.0,0.00807899461400359,0.00807899461400359,0.02423698384201077,0.026032315978456014,0.025134649910233394,0.026929982046678635,0.02064631956912029,0.02333931777378815,0.018850987432675045,0.02423698384201077,0.02423698384201077,0.02244165170556553,0.02244165170556553,0.00807899461400359,0.02154398563734291
S9_D2 hbo,0.003060778312199388,0.004809794490599038,0.018364669873196328,0.02710975076519458,0.025360734586794928,0.004809794490599038,0.015741145605596852,0.024923480542195016,0.023174464363795364,0.025360734586794928,0.026672496720594664,0.023611718408395276,0.021862702229995628,0.007433318758198513,0.016178399650196764,0.004372540445999125,0.01880192391779624,0.02229995627459554,0.01880192391779624,0.01880192391779624,0.013117621337997376,0.009182334936598164,0.020113686051595976,0.020550940096195888,0.023174464363795364,0.010494097070397902,0.03060778312199388,0.031045037166593792,0.027547004809794492,0.026672496720594664,0.004809794490599038,0.025360734586794928,0.021425448185395716,0.026235242675994752,0.024486226497595104,0.020113686051595976,0.004809794490599038,0.009619588981198076,0.010494097070397902,0.02229995627459554,0.024486226497595104,0.024486226497595104,0.023611718408395276,0.023174464363795364,0.026235242675994752,0.025360734586794928,0.02229995627459554,0.023611718408395276,0.024486226497595104,0.021425448185395716,0.009182334936598164,0.017927415828596416
S9_D9 hbo,0.004144218814753419,0.004144218814753419,0.018648984666390384,0.026108578532946538,0.024865312888520515,0.005801906340654786,0.01533360961458765,0.025279734769995857,0.024450891007045172,0.024450891007045172,0.0256941566514712,0.022793203481143803,0.021135515955242438,0.0074595938665561546,0.015748031496062992,0.0037297969332780773,0.018234562784915042,0.02154993783671778,0.018234562784915042,0.018234562784915042,0.014504765851636967,0.009117281392457521,0.02154993783671778,0.021964359718193122,0.024450891007045172,0.010360547036883548,0.029009531703273934,0.03232490675507667,0.02652300041442188,0.0256941566514712,0.005801906340654786,0.024450891007045172,0.020721094073767096,0.0256941566514712,0.0256941566514712,0.01947782842934107,0.005801906340654786,0.009946125155408206,0.01077496891835889,0.023207625362619146,0.023622047244094488,0.023622047244094488,0.024865312888520515,0.024450891007045172,0.026108578532946538,0.026108578532946538,0.02154993783671778,0.022793203481143803,0.0256941566514712,0.02237878159966846,0.008288437629506838,0.01740571902196436
S9_D11 hbo,0.002242152466367713,0.0053811659192825115,0.01748878923766816,0.026457399103139014,0.02466367713004484,0.004035874439461884,0.016591928251121078,0.0242152466367713,0.022869955156950672,0.025560538116591928,0.025560538116591928,0.02376681614349776,0.023318385650224215,0.008968609865470852,0.01748878923766816,0.004932735426008968,0.020179372197309416,0.02376681614349776,0.020179372197309416,0.020179372197309416,0.010762331838565023,0.010762331838565023,0.019282511210762333,0.020179372197309416,0.02242152466367713,0.01210762331838565,0.029596412556053813,0.02914798206278027,0.02914798206278027,0.02600896860986547,0.004035874439461884,0.025112107623318385,0.02242152466367713,0.025560538116591928,0.02376681614349776,0.02197309417040359,0.004035874439461884,0.009417040358744395,0.01031390134529148,0.021524663677130046,0.02466367713004484,0.02376681614349776,0.023318385650224215,0.022869955156950672,0.025560538116591928,0.0242152466367713,0.02197309417040359,0.023318385650224215,0.0242152466367713,0.021076233183856503,0.009865470852017937,0.019730941704035873
S10_D9 hbo,0.0008080808080808081,0.006868686868686869,0.01616161616161616,0.02666666666666667,0.026262626262626262,0.0024242424242424242,0.01696969696969697,0.02585858585858586,0.023434343434343436,0.025454545454545455,0.026262626262626262,0.025050505050505052,0.02181818181818182,0.008484848484848486,0.016565656565656565,0.007272727272727273,0.020606060606060607,0.023434343434343436,0.021414141414141413,0.01898989898989899,0.012525252525252526,0.010101010101010102,0.020606060606060607,0.02101010101010101,0.02383838383838384,0.01090909090909091,0.026262626262626262,0.02707070707070707,0.024646464646464646,0.0298989898989899,0.0024242424242424242,0.026262626262626262,0.024242424242424242,0.026262626262626262,0.02585858585858586,0.020202020202020204,0.0024242424242424242,0.007676767676767677,0.008484848484848486,0.02383838383838384,0.02585858585858586,0.024646464646464646,0.022626262626262626,0.023434343434343436,0.026262626262626262,0.023434343434343436,0.022222222222222223,0.023434343434343436,0.024242424242424242,0.02181818181818182,0.008484848484848486,0.01818181818181818
S10_D10 hbo,0.10309278350515463,0.07835051546391752,0.0865979381443299,0.016494845360824743,0.016494845360824743,0.11134020618556702,0.02268041237113402,0.010309278350515464,0.0,0.004123711340206186,0.012371134020618556,0.0,0.0,0.0,0.0,0.0,0.0,0.0,0.0,0.0,0.006185567010309278,0.0,0.0,0.0,0.0,0.0,0.020618556701030927,0.026804123711340205,0.016494845360824743,0.010309278350515464,0.10927835051546392,0.010309278350515464,0.0,0.008247422680412371,0.008247422680412371,0.0,0.11134020618556702,0.09690721649484536,0.032989690721649485,0.0,0.002061855670103093,0.0,0.0,0.010309278350515464,0.012371134020618556,0.026804123711340205,0.0,0.0,0.012371134020618556,0.0,0.016494845360824743,0.0
S10_D12 hbo,0.0007785130400934215,0.006228104320747372,0.01518100428182172,0.02491241728298949,0.02452316076294278,0.0023355391202802647,0.018684312962242117,0.026080186843129623,0.023744647722849357,0.023744647722849357,0.02452316076294278,0.0253016738030362,0.02140910860256909,0.010509926041261192,0.015959517321915143,0.0058388478007006615,0.020630595562475672,0.023744647722849357,0.02140910860256909,0.020630595562475672,0.011677695601401323,0.012066952121448035,0.021798365122615803,0.021798365122615803,0.02452316076294278,0.010899182561307902,0.02452316076294278,0.0253016738030362,0.023355391202802646,0.02646944336317633,0.0023355391202802647,0.027247956403269755,0.023744647722849357,0.025690930323082912,0.026080186843129623,0.021798365122615803,0.0023355391202802647,0.008563643441027637,0.009342156481121059,0.02452316076294278,0.025690930323082912,0.025690930323082912,0.022187621642662515,0.02413390424289607,0.027247956403269755,0.02413390424289607,0.023744647722849357,0.02452316076294278,0.023355391202802646,0.021798365122615803,0.008174386920980926,0.01907356948228883
S11_D9 hbo,0.0,0.00810234541577825,0.014498933901918977,0.024307036247334754,0.023880597014925373,0.0,0.020042643923240937,0.024307036247334754,0.023880597014925373,0.024733475479744138,0.02302771855010661,0.027292110874200425,0.02302771855010661,0.011087420042643924,0.017484008528784647,0.00767590618336887,0.022601279317697228,0.0255863539445629,0.024307036247334754,0.021748400852878463,0.01023454157782516,0.01279317697228145,0.022174840085287847,0.021748400852878463,0.024733475479744138,0.011087420042643924,0.02302771855010661,0.023454157782515993,0.022601279317697228,0.026865671641791045,0.0,0.026865671641791045,0.027292110874200425,0.024733475479744138,0.0255863539445629,0.023454157782515993,0.0,0.006823027718550106,0.00767590618336887,0.02515991471215352,0.027292110874200425,0.02601279317697228,0.022174840085287847,0.022601279317697228,0.0255863539445629,0.022601279317697228,0.023880597014925373,0.02515991471215352,0.021748400852878463,0.022174840085287847,0.006396588486140725,0.02046908315565032
S11_D11 hbo,0.0004166666666666667,0.005416666666666667,0.014583333333333334,0.025,0.025,0.0020833333333333333,0.016666666666666666,0.02625,0.025,0.025,0.025416666666666667,0.024166666666666666,0.022083333333333333,0.009166666666666667,0.017083333333333332,0.005,0.019583333333333335,0.022916666666666665,0.019583333333333335,0.019583333333333335,0.012916666666666667,0.010833333333333334,0.021666666666666667,0.0225,0.024583333333333332,0.011666666666666667,0.025833333333333333,0.0275,0.025,0.027083333333333334,0.0020833333333333333,0.025833333333333333,0.022083333333333333,0.027083333333333334,0.025833333333333333,0.02125,0.0020833333333333333,0.0075,0.008333333333333333,0.02375,0.025,0.025,0.024166666666666666,0.025,0.027083333333333334,0.024583333333333332,0.023333333333333334,0.024166666666666666,0.025416666666666667,0.023333333333333334,0.008333333333333333,0.019166666666666665
S11_D12 hbo,0.0003966679888932963,0.005553351844506148,0.01507338357794526,0.02459341531138437,0.024990083300277667,0.0019833399444664813,0.017850059500198336,0.02697342324474415,0.02578341927806426,0.02380007933359778,0.024196747322491077,0.024196747322491077,0.021420071400238,0.009520031733439112,0.016263387544625148,0.005156683855612852,0.01943673145577152,0.02261007536691789,0.02023006743355811,0.01943673145577152,0.014280047600158666,0.011106703689012296,0.023403411344704483,0.023403411344704483,0.02578341927806426,0.010313367711225704,0.024196747322491077,0.02657675525585085,0.023006743355811186,0.02657675525585085,0.0019833399444664813,0.02657675525585085,0.023006743355811186,0.026180087266957558,0.027766759222530742,0.021023403411344704,0.0019833399444664813,0.00753669178897263,0.008330027766759222,0.024990083300277667,0.02459341531138437,0.02459341531138437,0.02380007933359778,0.02578341927806426,0.02697342324474415,0.024196747322491077,0.02261007536691789,0.02380007933359778,0.02578341927806426,0.023403411344704483,0.007933359777865925,0.019040063466878223
S11_D13 hbo,0.0,0.006880733944954129,0.012844036697247707,0.022935779816513763,0.022018348623853212,0.0,0.01926605504587156,0.02431192660550459,0.025688073394495414,0.023853211009174313,0.022018348623853212,0.02614678899082569,0.023394495412844038,0.011926605504587157,0.01834862385321101,0.006422018348623854,0.021559633027522937,0.02522935779816514,0.022477064220183487,0.022477064220183487,0.009174311926605505,0.013761467889908258,0.022018348623853212,0.023394495412844038,0.024770642201834864,0.012844036697247707,0.022935779816513763,0.023394495412844038,0.023394495412844038,0.024770642201834864,0.0,0.025688073394495414,0.02522935779816514,0.02522935779816514,0.024770642201834864,0.024770642201834864,0.0,0.006880733944954129,0.007798165137614679,0.02431192660550459,0.02614678899082569,0.02614678899082569,0.02431192660550459,0.023853211009174313,0.025688073394495414,0.022935779816513763,0.025688073394495414,0.02614678899082569,0.022935779816513763,0.023853211009174313,0.006880733944954129,0.022477064220183487
S12_D10 hbo,0.10288808664259928,0.0812274368231047,0.07581227436823104,0.01444043321299639,0.01444043321299639,0.11010830324909747,0.019855595667870037,0.009025270758122744,0.0,0.0036101083032490976,0.010830324909747292,0.0,0.0,0.0,0.0,0.0,0.0,0.0,0.0,0.0,0.005415162454873646,0.0,0.0,0.0,0.0,0.0,0.018050541516245487,0.023465703971119134,0.01444043321299639,0.009025270758122744,0.09566787003610108,0.009025270758122744,0.0,0.007220216606498195,0.007220216606498195,0.0,0.15342960288808663,0.08483754512635379,0.05956678700361011,0.0,0.0018050541516245488,0.0,0.0,0.009025270758122744,0.010830324909747292,0.023465703971119134,0.0,0.0,0.010830324909747292,0.0,0.01444043321299639,0.0
S12_D12 hbo,0.037996545768566495,0.04145077720207254,0.045768566493955096,0.017271157167530225,0.017271157167530225,0.04145077720207254,0.024179620034542316,0.016407599309153715,0.012953367875647668,0.012953367875647668,0.01468048359240069,0.01468048359240069,0.012953367875647668,0.01468048359240069,0.010362694300518135,0.012953367875647668,0.01468048359240069,0.01468048359240069,0.01468048359240069,0.013816925734024179,0.0025906735751295338,0.01468048359240069,0.010362694300518135,0.010362694300518135,0.013816925734024179,0.007772020725388601,0.019861830742659757,0.02158894645941278,0.018998272884283247,0.017271157167530225,0.04145077720207254,0.018998272884283247,0.01468048359240069,0.016407599309153715,0.017271157167530225,0.01468048359240069,0.04145077720207254,0.054404145077720206,0.02849740932642487,0.012953367875647668,0.015544041450777202,0.01468048359240069,0.012953367875647668,0.018134715025906734,0.019861830742659757,0.025906735751295335,0.01468048359240069,0.013816925734024179,0.016407599309153715,0.012089810017271158,0.018998272884283247,0.012953367875647668
S12_D14 hbo,0.012512030798845043,0.017324350336862367,0.026948989412897015,0.021174205967276226,0.019249278152069296,0.016361886429258902,0.01828681424446583,0.01828681424446583,0.016361886429258902,0.016361886429258902,0.016361886429258902,0.01828681424446583,0.016361886429258902,0.017324350336862367,0.011549566891241578,0.014436958614051972,0.01828681424446583,0.019249278152069296,0.01828681424446583,0.016361886429258902,0.0028873917228103944,0.017324350336862367,0.011549566891241578,0.011549566891241578,0.015399422521655439,0.008662175168431183,0.02406159769008662,0.02598652550529355,0.023099133782483156,0.021174205967276226,0.016361886429258902,0.02406159769008662,0.019249278152069296,0.02021174205967276,0.02021174205967276,0.017324350336862367,0.03176130895091434,0.032723772858517804,0.04908565928777671,0.015399422521655439,0.02021174205967276,0.01828681424446583,0.016361886429258902,0.021174205967276226,0.025024061597690085,0.03176130895091434,0.01828681424446583,0.017324350336862367,0.02021174205967276,0.015399422521655439,0.02213666987487969,0.016361886429258902
S13_D6 hbo,0.0,0.006493506493506494,0.012987012987012988,0.022321428571428572,0.02353896103896104,0.0,0.018668831168831168,0.026379870129870128,0.02556818181818182,0.023133116883116884,0.02353896103896104,0.025974025974025976,0.02150974025974026,0.011363636363636364,0.016639610389610388,0.006087662337662338,0.021915584415584416,0.024756493506493508,0.022321428571428572,0.022321428571428572,0.012987012987012988,0.012987012987012988,0.02556818181818182,0.02556818181818182,0.028003246753246752,0.01176948051948052,0.022321428571428572,0.024756493506493508,0.021103896103896104,0.024756493506493508,0.0,0.02556818181818182,0.02353896103896104,0.024756493506493508,0.026785714285714284,0.022321428571428572,0.0,0.006493506493506494,0.006493506493506494,0.028003246753246752,0.02556818181818182,0.026785714285714284,0.025162337662337664,0.024756493506493508,0.026379870129870128,0.022321428571428572,0.023944805194805196,0.025162337662337664,0.022727272727272728,0.023944805194805196,0.005275974025974026,0.018668831168831168
S13_D11 hbo,0.0,0.006436041834271922,0.014481094127111826,0.024537409493161706,0.023732904263877714,0.0008045052292839903,0.018905872888173775,0.0249396621078037,0.023732904263877714,0.026146419951729685,0.0249396621078037,0.02654867256637168,0.02333065164923572,0.010458567980691875,0.016492357200321803,0.006033789219629927,0.022123893805309734,0.025341914722445697,0.022123893805309734,0.02091713596138375,0.011263073209975865,0.012067578439259855,0.02172164119066774,0.02172164119066774,0.0249396621078037,0.01166532582461786,0.0249396621078037,0.025341914722445697,0.023732904263877714,0.02654867256637168,0.0008045052292839903,0.026950925181013677,0.024537409493161706,0.02574416733708769,0.02574416733708769,0.022123893805309734,0.0008045052292839903,0.007240547063555913,0.008045052292839904,0.0249396621078037,0.027353177795655673,0.026146419951729685,0.02333065164923572,0.022928399034593726,0.02574416733708769,0.022928399034593726,0.023732904263877714,0.0249396621078037,0.022123893805309734,0.02172164119066774,0.006838294448913918,0.019308125502815767
S13_D13 hbo,0.0,0.006117455138662317,0.01264274061990212,0.022838499184339316,0.022838499184339316,0.0,0.01835236541598695,0.024877650897226752,0.02528548123980424,0.02406199021207178,0.0232463295269168,0.026101141924959218,0.022838499184339316,0.011419249592169658,0.016721044045676998,0.005709624796084829,0.02202283849918434,0.02528548123980424,0.02202283849918434,0.02202283849918434,0.011419249592169658,0.013050570962479609,0.02365415986949429,0.02406199021207178,0.02569331158238173,0.012234910277324634,0.02365415986949429,0.024877650897226752,0.022838499184339316,0.02528548123980424,0.0,0.02569331158238173,0.02365415986949429,0.026101141924959218,0.02528548123980424,0.022838499184339316,0.0,0.006117455138662317,0.006933115823817292,0.02569331158238173,0.026101141924959218,0.02732463295269168,0.02528548123980424,0.02406199021207178,0.026916802610114192,0.022838499184339316,0.024877650897226752,0.026508972267536703,0.022430668841761828,0.02406199021207178,0.006117455138662317,0.0199836867862969
S13_D15 hbo,0.0,0.005901044030866999,0.010894235133908307,0.02224239673172946,0.02224239673172946,0.0,0.016341352700862462,0.024965955515206535,0.027689514298683614,0.024058102587380843,0.02315024965955515,0.024965955515206535,0.02224239673172946,0.011348161597821153,0.016341352700862462,0.005447117566954153,0.01997276441216523,0.023604176123467997,0.01997276441216523,0.01997276441216523,0.011802088061733999,0.013163867453472538,0.024058102587380843,0.02541988197911938,0.026781661370857923,0.013617793917385384,0.024965955515206535,0.02723558783477077,0.024058102587380843,0.02451202905129369,0.0,0.02451202905129369,0.02224239673172946,0.02541988197911938,0.025873808443032227,0.02224239673172946,0.0,0.005901044030866999,0.006808896958692692,0.02541988197911938,0.024965955515206535,0.025873808443032227,0.029959146618247844,0.02541988197911938,0.025873808443032227,0.022696323195642305,0.02541988197911938,0.024965955515206535,0.025873808443032227,0.026327734906945077,0.006808896958692692,0.020426690876078075
S14_D12 hbo,0.0008438818565400844,0.00590717299578059,0.014345991561181435,0.02362869198312236,0.024050632911392405,0.002531645569620253,0.01729957805907173,0.026160337552742614,0.026582278481012658,0.022362869198312235,0.023206751054852322,0.023206751054852322,0.020253164556962026,0.010548523206751054,0.016877637130801686,0.005485232067510549,0.018143459915611813,0.021518987341772152,0.0189873417721519,0.0189873417721519,0.013924050632911392,0.012236286919831224,0.02362869198312236,0.024050632911392405,0.02531645569620253,0.010548523206751054,0.02362869198312236,0.026160337552742614,0.02278481012658228,0.02531645569620253,0.002531645569620253,0.025738396624472575,0.022362869198312235,0.025738396624472575,0.027426160337552744,0.021518987341772152,0.002531645569620253,0.008438818565400843,0.009282700421940928,0.024050632911392405,0.02362869198312236,0.024050632911392405,0.024894514767932488,0.027426160337552744,0.027426160337552744,0.025738396624472575,0.02362869198312236,0.02362869198312236,0.0270042194092827,0.024894514767932488,0.008860759493670886,0.02067510548523207
S14_D13 hbo,0.0011560693641618498,0.006551059730250481,0.014258188824662813,0.023892100192678227,0.023892100192678227,0.002697495183044316,0.017726396917148363,0.02581888246628131,0.02466281310211946,0.022350674373795763,0.023121387283236993,0.024277456647398842,0.02042389210019268,0.011175337186897881,0.01579961464354528,0.005780346820809248,0.02003853564547206,0.023121387283236993,0.020809248554913295,0.020809248554913295,0.01233140655105973,0.012716763005780347,0.022736030828516378,0.023121387283236993,0.02466281310211946,0.010789980732177264,0.023892100192678227,0.02581888246628131,0.023121387283236993,0.025048169556840076,0.002697495183044316,0.026589595375722544,0.022736030828516378,0.025433526011560695,0.02581888246628131,0.021965317919075144,0.002697495183044316,0.009248554913294798,0.01001926782273603,0.025048169556840076,0.02466281310211946,0.025048169556840076,0.023506743737957612,0.025433526011560695,0.02813102119460501,0.025433526011560695,0.023892100192678227,0.024277456647398842,0.024277456647398842,0.023121387283236993,0.008477842003853564,0.018882466281310212
S14_D14 hbo,0.0042643923240938165,0.006823027718550106,0.01791044776119403,0.023880597014925373,0.024307036247334754,0.005970149253731343,0.017484008528784647,0.024733475479744138,0.023880597014925373,0.021748400852878463,0.022601279317697228,0.022601279317697228,0.019189765458422176,0.010660980810234541,0.017057569296375266,0.006396588486140725,0.017484008528784647,0.020895522388059702,0.01833688699360341,0.01833688699360341,0.01279317697228145,0.012366737739872069,0.021748400852878463,0.021748400852878463,0.023454157782515993,0.008955223880597015,0.024733475479744138,0.02814498933901919,0.02302771855010661,0.024733475479744138,0.005970149253731343,0.02515991471215352,0.021748400852878463,0.024733475479744138,0.0255863539445629,0.020895522388059702,0.005970149253731343,0.01279317697228145,0.013646055437100213,0.02302771855010661,0.02302771855010661,0.023454157782515993,0.022601279317697228,0.02601279317697228,0.026865671641791045,0.029424307036247335,0.02302771855010661,0.022601279317697228,0.02515991471215352,0.02302771855010661,0.009808102345415778,0.019189765458422176
S14_D16 hbo,0.0,0.006619593998234775,0.011915269196822596,0.02294792586054722,0.02294792586054722,0.000441306266548985,0.0176522506619594,0.025154457193292144,0.026037069726390114,0.02383053839364519,0.02294792586054722,0.02559576345984113,0.02206531332744925,0.01147396293027361,0.01676963812886143,0.00617828773168579,0.02030008826125331,0.02383053839364519,0.020741394527802295,0.020741394527802295,0.01059135039717564,0.01323918799646955,0.022506619593998235,0.02383053839364519,0.02559576345984113,0.012797881729920565,0.023389232127096204,0.02471315092674316,0.022506619593998235,0.02559576345984113,0.000441306266548985,0.02559576345984113,0.023389232127096204,0.0264783759929391,0.02559576345984113,0.02294792586054722,0.000441306266548985,0.00706090026478376,0.00794351279788173,0.02471315092674316,0.026037069726390114,0.0264783759929391,0.026037069726390114,0.02471315092674316,0.0264783759929391,0.02383053839364519,0.026037069726390114,0.02559576345984113,0.024271844660194174,0.02471315092674316,0.00706090026478376,0.02118270079435128
S15_D13 hbo,0.0,0.0059121621621621625,0.01266891891891892,0.02322635135135135,0.022804054054054054,0.0,0.018158783783783782,0.02491554054054054,0.025760135135135136,0.024070945945945946,0.02322635135135135,0.026182432432432432,0.022804054054054054,0.011402027027027027,0.01731418918918919,0.005489864864864865,0.02153716216216216,0.02491554054054054,0.02195945945945946,0.02195945945945946,0.01097972972972973,0.013091216216216216,0.02322635135135135,0.024070945945945946,0.02533783783783784,0.012246621621621621,0.02364864864864865,0.024493243243243243,0.022804054054054054,0.025760135135135136,0.0,0.025760135135135136,0.02364864864864865,0.026182432432432432,0.02491554054054054,0.02322635135135135,0.0,0.0059121621621621625,0.006756756756756757,0.02533783783783784,0.025760135135135136,0.027449324324324325,0.02533783783783784,0.024070945945945946,0.02660472972972973,0.022804054054054054,0.02533783783783784,0.02660472972972973,0.022804054054054054,0.024493243243243243,0.00633445945945946,0.020692567567567568
S15_D15 hbo,0.0013692377909630307,0.005020538566864446,0.015061615700593337,0.02647193062528526,0.02510269283432223,0.003194888178913738,0.015061615700593337,0.02601551802829758,0.026928343222272933,0.023733455043359195,0.02510269283432223,0.022820629849383843,0.020082154267457783,0.00867183934276586,0.016430853491556367,0.004564125969876769,0.01734367868553172,0.020994979461433135,0.018256503879507075,0.018256503879507075,0.01460520310360566,0.010497489730716568,0.022820629849383843,0.023733455043359195,0.025559105431309903,0.010953902327704245,0.02601551802829758,0.02875399361022364,0.024189867640346873,0.02601551802829758,0.003194888178913738,0.02510269283432223,0.020994979461433135,0.02601551802829758,0.02647193062528526,0.020538566864445457,0.003194888178913738,0.008215426745778184,0.009128251939753538,0.023733455043359195,0.02327704244637152,0.023733455043359195,0.025559105431309903,0.02601551802829758,0.026928343222272933,0.02510269283432223,0.023733455043359195,0.02327704244637152,0.02921040620721132,0.02464628023733455,0.009128251939753538,0.019169329073482427
S15_D16 hbo,0.0,0.005535055350553505,0.011992619926199263,0.023062730627306273,0.023062730627306273,0.0,0.017066420664206643,0.0253690036900369,0.027675276752767528,0.0235239852398524,0.022601476014760147,0.024907749077490774,0.021217712177121772,0.01107011070110701,0.017066420664206643,0.00507380073800738,0.01937269372693727,0.023062730627306273,0.02029520295202952,0.02029520295202952,0.012453874538745387,0.012915129151291513,0.024446494464944648,0.0253690036900369,0.026291512915129153,0.012453874538745387,0.023062730627306273,0.025830258302583026,0.021678966789667898,0.024446494464944648,0.0,0.0253690036900369,0.023062730627306273,0.0253690036900369,0.026752767527675275,0.023062730627306273,0.0,0.005535055350553505,0.006457564575645757,0.025830258302583026,0.024446494464944648,0.025830258302583026,0.027675276752767528,0.026291512915129153,0.026752767527675275,0.0235239852398524,0.025830258302583026,0.0253690036900369,0.026752767527675275,0.0272140221402214,0.006457564575645757,0.021217712177121772
S16_D14 hbo,0.006211180124223602,0.014906832298136646,0.024844720496894408,0.02732919254658385,0.02360248447204969,0.011180124223602485,0.017391304347826087,0.02111801242236025,0.018633540372670808,0.02111801242236025,0.02111801242236025,0.018633540372670808,0.018633540372670808,0.016149068322981366,0.013664596273291925,0.013664596273291925,0.017391304347826087,0.018633540372670808,0.017391304347826087,0.014906832298136646,0.0037267080745341614,0.016149068322981366,0.009937888198757764,0.011180124223602485,0.014906832298136646,0.011180124223602485,0.02981366459627329,0.02857142857142857,0.02857142857142857,0.024844720496894408,0.011180124223602485,0.024844720496894408,0.018633540372670808,0.02360248447204969,0.02236024844720497,0.017391304347826087,0.011180124223602485,0.02608695652173913,0.02857142857142857,0.013664596273291925,0.01987577639751553,0.018633540372670808,0.018633540372670808,0.02360248447204969,0.02608695652173913,0.02981366459627329,0.018633540372670808,0.018633540372670808,0.02608695652173913,0.018633540372670808,0.02981366459627329,0.018633540372670808
S16_D16 hbo,0.0,0.006845708267509215,0.01369141653501843,0.02317008952080042,0.022643496577145865,0.0,0.018430753027909426,0.023696682464454975,0.02527646129541864,0.02422327540810953,0.022116903633491312,0.02527646129541864,0.02422327540810953,0.012111637704054766,0.018957345971563982,0.00631911532385466,0.021063717746182202,0.02527646129541864,0.022116903633491312,0.022116903633491312,0.00842548709847288,0.014218009478672985,0.021590310689836755,0.022116903633491312,0.023696682464454975,0.013164823591363875,0.02317008952080042,0.023696682464454975,0.024749868351764088,0.024749868351764088,0.0,0.02527646129541864,0.02527646129541864,0.02527646129541864,0.024749868351764088,0.024749868351764088,0.0,0.006845708267509215,0.007898894154818325,0.02317008952080042,0.02527646129541864,0.02527646129541864,0.024749868351764088,0.023696682464454975,0.02527646129541864,0.02317008952080042,0.02527646129541864,0.02527646129541864,0.02422327540810953,0.02527646129541864,0.007898894154818325,0.02422327540810953
