,S1_D1 hbo,S1_D3 hbo,S2_D1 hbo,S2_D2 hbo,S2_D4 hbo,S3_D1 hbo,S3_D3 hbo,S3_D4 hbo,S3_D5 hbo,S4_D2 hbo,S4_D4 hbo,S4_D6 hbo,S4_D11 hbo,S5_D3 hbo,S5_D5 hbo,S5_D7 hbo,S6_D4 hbo,S6_D5 hbo,S6_D6 hbo,S6_D8 hbo,S7_D5 hbo,S7_D7 hbo,S7_D8 hbo,S8_D6 hbo,S8_D8 hbo,S8_D15 hbo,S9_D2 hbo,S9_D9 hbo,S9_D11 hbo,S10_D9 hbo,S10_D10 hbo,S10_D12 hbo,S11_D9 hbo,S11_D11 hbo,S11_D12 hbo,S11_D13 hbo,S12_D10 hbo,S12_D12 hbo,S12_D14 hbo,S13_D6 hbo,S13_D11 hbo,S13_D13 hbo,S13_D15 hbo,S14_D12 hbo,S14_D13 hbo,S14_D14 hbo,S14_D16 hbo,S15_D13 hbo,S15_D15 hbo,S15_D16 hbo,S16_D14 hbo,S16_D16 hbo
S1_D1 hbo,0.0,0.0,0.0,0.0,0.0,0.0,0.0,0.0,0.0,0.0,0.0,0.0,0.0,0.0,0.0,0.0,0.0,0.0,0.0,0.0,0.0,0.0,0.0,0.0,0.0,0.0,0.0,0.0,0.0,0.0,0.0,0.0,0.0,0.0,0.0,0.0,0.0,0.0,0.0,0.0,0.0,0.0,0.0,0.0,0.0,0.0,0.0,0.0,0.0,0.0,0.0,0.0
S1_D3 hbo,0.0,0.058823529411764705,0.06162464985994398,0.0,0.0,0.0,0.0,0.058823529411764705,0.028011204481792718,0.03361344537815126,0.0,0.0,0.03081232492997199,0.04481792717086835,0.0,0.025210084033613446,0.0,0.0,0.0,0.0,0.047619047619047616,0.05042016806722689,0.04481792717086835,0.0,0.028011204481792718,0.05322128851540616,0.0,0.05042016806722689,0.025210084033613446,0.0,0.0,0.0,0.0,0.056022408963585436,0.0,0.056022408963585436,0.0,0.0,0.0,0.056022408963585436,0.056022408963585436,0.0196078431372549,0.058823529411764705,0.0,0.0,0.0,0.056022408963585436,0.0,0.0,0.0,0.0,0.0
S2_D1 hbo,0.0,0.04830917874396135,0.06763285024154589,0.0,0.0,0.0,0.0,0.05555555555555555,0.024154589371980676,0.03864734299516908,0.0,0.0,0.03140096618357488,0.05314009661835749,0.0,0.021739130434782608,0.0,0.0,0.0,0.0,0.04106280193236715,0.05555555555555555,0.04106280193236715,0.0,0.024154589371980676,0.043478260869565216,0.0,0.04589371980676329,0.01932367149758454,0.0,0.0,0.0,0.0,0.06280193236714976,0.0,0.06521739130434782,0.0,0.0,0.0,0.057971014492753624,0.06521739130434782,0.01932367149758454,0.050724637681159424,0.0,0.0,0.0,0.06763285024154589,0.0,0.0,0.0,0.0,0.0
S2_D2 hbo,0.0,0.0,0.0,0.0,0.0,0.0,0.0,0.0,0.0,0.0,0.0,0.0,0.0,0.0,0.0,0.0,0.0,0.0,0.0,0.0,0.0,0.0,0.0,0.0,0.0,0.0,0.0,0.0,0.0,0.0,0.0,0.0,0.0,0.0,0.0,0.0,0.0,0.0,0.0,0.0,0.0,0.0,0.0,0.0,0.0,0.0,0.0,0.0,0.0,0.0,0.0,0.0
S2_D4 hbo,0.0,0.0,0.0,0.0,0.0,0.0,0.0,0.0,0.0,0.0,0.0,0.0,0.0,0.0,0.0,0.0,0.0,0.0,0.0,0.0,0.0,0.0,0.0,0.0,0.0,0.0,0.0,0.0,0.0,0.0,0.0,0.0,0.0,0.0,0.0,0.0,0.0,0.0,0.0,0.0,0.0,0.0,0.0,0.0,0.0,0.0,0.0,0.0,0.0,0.0,0.0,0.0
S3_D1 hbo,0.0,0.0,0.0,0.0,0.0,0.0,0.0,0.0,0.0,0.0,0.0,0.0,0.0,0.0,0.0,0.0,0.0,0.0,0.0,0.0,0.0,0.0,0.0,0.0,0.0,0.0,0.0,0.0,0.0,0.0,0.0,0.0,0.0,0.0,0.0,0.0,0.0,0.0,0.0,0.0,0.0,0.0,0.0,0.0,0.0,0.0,0.0,0.0,0.0,0.0,0.0,0.0
S3_D3 hbo,0.0,0.0,0.0,0.0,0.0,0.0,0.0,0.0,0.0,0.0,0.0,0.0,0.0,0.0,0.0,0.0,0.0,0.0,0.0,0.0,0.0,0.0,0.0,0.0,0.0,0.0,0.0,0.0,0.0,0.0,0.0,0.0,0.0,0.0,0.0,0.0,0.0,0.0,0.0,0.0,0.0,0.0,0.0,0.0,0.0,0.0,0.0,0.0,0.0,0.0,0.0,0.0
S3_D4 hbo,0.0,0.049868766404199474,0.06036745406824147,0.0,0.0,0.0,0.0,0.05774278215223097,0.026246719160104987,0.03937007874015748,0.0,0.0,0.03412073490813648,0.049868766404199474,0.0,0.023622047244094488,0.0,0.0,0.0,0.0,0.04461942257217848,0.05511811023622047,0.04461942257217848,0.0,0.026246719160104987,0.04461942257217848,0.0,0.049868766404199474,0.01837270341207349,0.0,0.0,0.0,0.0,0.06036745406824147,0.0,0.06036745406824147,0.0,0.0,0.0,0.06036745406824147,0.06036745406824147,0.02099737532808399,0.05249343832020997,0.0,0.0,0.0,0.06036745406824147,0.0,0.0,0.0,0.0,0.0
S3_D5 hbo,0.0,0.050505050505050504,0.050505050505050504,0.0,0.0,0.0,0.0,0.050505050505050504,0.045454545454545456,0.050505050505050504,0.0,0.0,0.045454545454545456,0.050505050505050504,0.0,0.03535353535353535,0.0,0.0,0.0,0.0,0.050505050505050504,0.050505050505050504,0.050505050505050504,0.0,0.045454545454545456,0.045454545454545456,0.0,0.050505050505050504,0.0,0.0,0.0,0.0,0.0,0.050505050505050504,0.0,0.050505050505050504,0.0,0.0,0.0,0.050505050505050504,0.050505050505050504,0.025252525252525252,0.050505050505050504,0.0,0.0,0.0,0.050505050505050504,0.0,0.0,0.0,0.0,0.0
S4_D2 hbo,0.0,0.03787878787878788,0.06060606060606061,0.0,0.0,0.0,0.0,0.04924242424242424,0.030303030303030304,0.056818181818181816,0.0,0.0,0.04924242424242424,0.06060606060606061,0.0,0.03409090909090909,0.0,0.0,0.0,0.0,0.03787878787878788,0.06060606060606061,0.045454545454545456,0.0,0.030303030303030304,0.030303030303030304,0.0,0.045454545454545456,0.0,0.0,0.0,0.0,0.0,0.06060606060606061,0.0,0.06060606060606061,0.0,0.0,0.0,0.056818181818181816,0.06060606060606061,0.030303030303030304,0.041666666666666664,0.0,0.0,0.0,0.06060606060606061,0.0,0.0,0.0,0.0,0.0
S4_D4 hbo,0.0,0.0,0.0,0.0,0.0,0.0,0.0,0.0,0.0,0.0,0.0,0.0,0.0,0.0,0.0,0.0,0.0,0.0,0.0,0.0,0.0,0.0,0.0,0.0,0.0,0.0,0.0,0.0,0.0,0.0,0.0,0.0,0.0,0.0,0.0,0.0,0.0,0.0,0.0,0.0,0.0,0.0,0.0,0.0,0.0,0.0,0.0,0.0,0.0,0.0,0.0,0.0
S4_D6 hbo,0.0,0.0,0.0,0.0,0.0,0.0,0.0,0.0,0.0,0.0,0.0,0.0,0.0,0.0,0.0,0.0,0.0,0.0,0.0,0.0,0.0,0.0,0.0,0.0,0.0,0.0,0.0,0.0,0.0,0.0,0.0,0.0,0.0,0.0,0.0,0.0,0.0,0.0,0.0,0.0,0.0,0.0,0.0,0.0,0.0,0.0,0.0,0.0,0.0,0.0,0.0,0.0
S4_D11 hbo,0.0,0.039301310043668124,0.056768558951965066,0.0,0.0,0.0,0.0,0.05240174672489083,0.03056768558951965,0.056768558951965066,0.0,0.0,0.05240174672489083,0.056768558951965066,0.0,0.039301310043668124,0.0,0.0,0.0,0.0,0.039301310043668124,0.056768558951965066,0.048034934497816595,0.0,0.03056768558951965,0.03056768558951965,0.0,0.048034934497816595,0.0,0.0,0.0,0.0,0.0,0.056768558951965066,0.0,0.056768558951965066,0.0,0.0,0.0,0.056768558951965066,0.056768558951965066,0.034934497816593885,0.043668122270742356,0.0,0.0,0.0,0.056768558951965066,0.0,0.0,0.0,0.0,0.0
S5_D3 hbo,0.0,0.04105571847507331,0.06451612903225806,0.0,0.0,0.0,0.0,0.04985337243401759,0.02932551319648094,0.0469208211143695,0.0,0.0,0.03812316715542522,0.06158357771260997,0.0,0.026392961876832845,0.0,0.0,0.0,0.0,0.04105571847507331,0.05865102639296188,0.0469208211143695,0.0,0.02932551319648094,0.03519061583577713,0.0,0.0469208211143695,0.005865102639296188,0.0,0.0,0.0,0.0,0.06158357771260997,0.0,0.06451612903225806,0.0,0.0,0.0,0.05571847507331378,0.06451612903225806,0.02346041055718475,0.04398826979472141,0.0,0.0,0.0,0.06451612903225806,0.0,0.0,0.0,0.0,0.0
S5_D5 hbo,0.0,0.0,0.0,0.0,0.0,0.0,0.0,0.0,0.0,0.0,0.0,0.0,0.0,0.0,0.0,0.0,0.0,0.0,0.0,0.0,0.0,0.0,0.0,0.0,0.0,0.0,0.0,0.0,0.0,0.0,0.0,0.0,0.0,0.0,0.0,0.0,0.0,0.0,0.0,0.0,0.0,0.0,0.0,0.0,0.0,0.0,0.0,0.0,0.0,0.0,0.0,0.0
S5_D7 hbo,0.0,0.041176470588235294,0.052941176470588235,0.0,0.0,0.0,0.0,0.052941176470588235,0.029411764705882353,0.052941176470588235,0.0,0.0,0.052941176470588235,0.052941176470588235,0.0,0.047058823529411764,0.0,0.0,0.0,0.0,0.041176470588235294,0.052941176470588235,0.052941176470588235,0.0,0.029411764705882353,0.029411764705882353,0.0,0.052941176470588235,0.0,0.0,0.0,0.0,0.0,0.052941176470588235,0.0,0.052941176470588235,0.0,0.0,0.0,0.052941176470588235,0.052941176470588235,0.047058823529411764,0.047058823529411764,0.0,0.0,0.0,0.052941176470588235,0.0,0.0,0.0,0.0,0.0
S6_D4 hbo,0.0,0.0,0.0,0.0,0.0,0.0,0.0,0.0,0.0,0.0,0.0,0.0,0.0,0.0,0.0,0.0,0.0,0.0,0.0,0.0,0.0,0.0,0.0,0.0,0.0,0.0,0.0,0.0,0.0,0.0,0.0,0.0,0.0,0.0,0.0,0.0,0.0,0.0,0.0,0.0,0.0,0.0,0.0,0.0,0.0,0.0,0.0,0.0,0.0,0.0,0.0,0.0
S6_D5 hbo,0.0,0.0,0.0,0.0,0.0,0.0,0.0,0.0,0.0,0.0,0.0,0.0,0.0,0.0,0.0,0.0,0.0,0.0,0.0,0.0,0.0,0.0,0.0,0.0,0.0,0.0,0.0,0.0,0.0,0.0,0.0,0.0,0.0,0.0,0.0,0.0,0.0,0.0,0.0,0.0,0.0,0.0,0.0,0.0,0.0,0.0,0.0,0.0,0.0,0.0,0.0,0.0
S6_D6 hbo,0.0,0.0,0.0,0.0,0.0,0.0,0.0,0.0,0.0,0.0,0.0,0.0,0.0,0.0,0.0,0.0,0.0,0.0,0.0,0.0,0.0,0.0,0.0,0.0,0.0,0.0,0.0,0.0,0.0,0.0,0.0,0.0,0.0,0.0,0.0,0.0,0.0,0.0,0.0,0.0,0.0,0.0,0.0,0.0,0.0,0.0,0.0,0.0,0.0,0.0,0.0,0.0
S6_D8 hbo,0.0,0.0,0.0,0.0,0.0,0.0,0.0,0.0,0.0,0.0,0.0,0.0,0.0,0.0,0.0,0.0,0.0,0.0,0.0,0.0,0.0,0.0,0.0,0.0,0.0,0.0,0.0,0.0,0.0,0.0,0.0,0.0,0.0,0.0,0.0,0.0,0.0,0.0,0.0,0.0,0.0,0.0,0.0,0.0,0.0,0.0,0.0,0.0,0.0,0.0,0.0,0.0
S7_D5 hbo,0.0,0.05144694533762058,0.05466237942122187,0.0,0.0,0.0,0.0,0.05466237942122187,0.03215434083601286,0.03858520900321544,0.0,0.0,0.03536977491961415,0.05144694533762058,0.0,0.028938906752411574,0.0,0.0,0.0,0.0,0.05144694533762058,0.05466237942122187,0.05144694533762058,0.0,0.03215434083601286,0.04501607717041801,0.0,0.05466237942122187,0.012861736334405145,0.0,0.0,0.0,0.0,0.05466237942122187,0.0,0.05466237942122187,0.0,0.0,0.0,0.05466237942122187,0.05466237942122187,0.022508038585209004,0.05466237942122187,0.0,0.0,0.0,0.05466237942122187,0.0,0.0,0.0,0.0,0.0
S7_D7 hbo,0.0,0.043596730245231606,0.06267029972752043,0.0,0.0,0.0,0.0,0.051771117166212535,0.027247956403269755,0.043596730245231606,0.0,0.0,0.035422343324250684,0.05994550408719346,0.0,0.02452316076294278,0.0,0.0,0.0,0.0,0.043596730245231606,0.05994550408719346,0.04632152588555858,0.0,0.027247956403269755,0.03814713896457766,0.0,0.04904632152588556,0.010899182561307902,0.0,0.0,0.0,0.0,0.06267029972752043,0.0,0.06267029972752043,0.0,0.0,0.0,0.05722070844686648,0.06267029972752043,0.021798365122615803,0.04632152588555858,0.0,0.0,0.0,0.06267029972752043,0.0,0.0,0.0,0.0,0.0
S7_D8 hbo,0.0,0.0457516339869281,0.05555555555555555,0.0,0.0,0.0,0.0,0.05555555555555555,0.032679738562091505,0.0457516339869281,0.0,0.0,0.042483660130718956,0.05555555555555555,0.0,0.029411764705882353,0.0,0.0,0.0,0.0,0.0457516339869281,0.05555555555555555,0.05228758169934641,0.0,0.032679738562091505,0.0392156862745098,0.0,0.05228758169934641,0.006535947712418301,0.0,0.0,0.0,0.0,0.05555555555555555,0.0,0.05555555555555555,0.0,0.0,0.0,0.05555555555555555,0.05555555555555555,0.026143790849673203,0.049019607843137254,0.0,0.0,0.0,0.05555555555555555,0.0,0.0,0.0,0.0,0.0
S8_D6 hbo,0.0,0.0,0.0,0.0,0.0,0.0,0.0,0.0,0.0,0.0,0.0,0.0,0.0,0.0,0.0,0.0,0.0,0.0,0.0,0.0,0.0,0.0,0.0,0.0,0.0,0.0,0.0,0.0,0.0,0.0,0.0,0.0,0.0,0.0,0.0,0.0,0.0,0.0,0.0,0.0,0.0,0.0,0.0,0.0,0.0,0.0,0.0,0.0,0.0,0.0,0.0,0.0
S8_D8 hbo,0.0,0.050505050505050504,0.050505050505050504,0.0,0.0,0.0,0.0,0.050505050505050504,0.045454545454545456,0.050505050505050504,0.0,0.0,0.045454545454545456,0.050505050505050504,0.0,0.03535353535353535,0.0,0.0,0.0,0.0,0.050505050505050504,0.050505050505050504,0.050505050505050504,0.0,0.045454545454545456,0.045454545454545456,0.0,0.050505050505050504,0.0,0.0,0.0,0.0,0.0,0.050505050505050504,0.0,0.050505050505050504,0.0,0.0,0.0,0.050505050505050504,0.050505050505050504,0.025252525252525252,0.050505050505050504,0.0,0.0,0.0,0.050505050505050504,0.0,0.0,0.0,0.0,0.0
S8_D15 hbo,0.0,0.0634441087613293,0.06042296072507553,0.0,0.0,0.0,0.0,0.05740181268882175,0.030211480362537766,0.030211480362537766,0.0,0.0,0.027190332326283987,0.04229607250755287,0.0,0.021148036253776436,0.0,0.0,0.0,0.0,0.04833836858006042,0.04833836858006042,0.04229607250755287,0.0,0.030211480362537766,0.06646525679758308,0.0,0.04833836858006042,0.03323262839879154,0.0,0.0,0.0,0.0,0.054380664652567974,0.0,0.054380664652567974,0.0,0.0,0.0,0.054380664652567974,0.054380664652567974,0.015105740181268883,0.05740181268882175,0.0030211480362537764,0.0,0.0030211480362537764,0.054380664652567974,0.0,0.0,0.0,0.0,0.0
S9_D2 hbo,0.0,0.0,0.0,0.0,0.0,0.0,0.0,0.0,0.0,0.0,0.0,0.0,0.0,0.0,0.0,0.0,0.0,0.0,0.0,0.0,0.0,0.0,0.0,0.0,0.0,0.0,0.0,0.0,0.0,0.0,0.0,0.0,0.0,0.0,0.0,0.0,0.0,0.0,0.0,0.0,0.0,0.0,0.0,0.0,0.0,0.0,0.0,0.0,0.0,0.0,0.0,0.0
S9_D9 hbo,0.0,0.047619047619047616,0.05654761904761905,0.0,0.0,0.0,0.0,0.05654761904761905,0.02976190476190476,0.041666666666666664,0.0,0.0,0.03869047619047619,0.05357142857142857,0.0,0.026785714285714284,0.0,0.0,0.0,0.0,0.047619047619047616,0.05654761904761905,0.050595238095238096,0.0,0.02976190476190476,0.041666666666666664,0.0,0.05357142857142857,0.011904761904761904,0.0,0.0,0.0,0.0,0.05654761904761905,0.0,0.05654761904761905,0.0,0.0,0.0,0.05654761904761905,0.05654761904761905,0.023809523809523808,0.050595238095238096,0.0,0.0,0.0,0.05654761904761905,0.0,0.0,0.0,0.0,0.0
S9_D11 hbo,0.0,0.0859375,0.078125,0.0,0.0,0.0,0.0,0.0703125,0.0078125,0.0,0.0,0.0,0.0,0.03125,0.0,0.0,0.0,0.0,0.0,0.0,0.046875,0.046875,0.03125,0.0,0.0078125,0.0859375,0.0,0.046875,0.078125,0.0,0.0,0.0,0.0,0.0625,0.0,0.0625,0.0,0.0,0.0,0.0625,0.0625,0.0,0.0703125,0.0,0.0,0.0,0.0625,0.0,0.0,0.0,0.0,0.0
S10_D9 hbo,0.0,0.0,0.0,0.0,0.0,0.0,0.0,0.0,0.0,0.0,0.0,0.0,0.0,0.0,0.0,0.0,0.0,0.0,0.0,0.0,0.0,0.0,0.0,0.0,0.0,0.0,0.0,0.0,0.0,0.0,0.0,0.0,0.0,0.0,0.0,0.0,0.0,0.0,0.0,0.0,0.0,0.0,0.0,0.0,0.0,0.0,0.0,0.0,0.0,0.0,0.0,0.0
S10_D10 hbo,0.0,0.0,0.0,0.0,0.0,0.0,0.0,0.0,0.0,0.0,0.0,0.0,0.0,0.0,0.0,0.0,0.0,0.0,0.0,0.0,0.0,0.0,0.0,0.0,0.0,0.0,0.0,0.0,0.0,0.0,0.14285714285714285,0.0,0.0,0.0,0.0,0.0,0.0,0.2857142857142857,0.0,0.0,0.0,0.0,0.0,0.2857142857142857,0.0,0.2857142857142857,0.0,0.0,0.0,0.0,0.0,0.0
S10_D12 hbo,0.0,0.0,0.0,0.0,0.0,0.0,0.0,0.0,0.0,0.0,0.0,0.0,0.0,0.0,0.0,0.0,0.0,0.0,0.0,0.0,0.0,0.0,0.0,0.0,0.0,0.0,0.0,0.0,0.0,0.0,0.0,0.0,0.0,0.0,0.0,0.0,0.0,0.0,0.0,0.0,0.0,0.0,0.0,0.0,0.0,0.0,0.0,0.0,0.0,0.0,0.0,0.0
S11_D9 hbo,0.0,0.0,0.0,0.0,0.0,0.0,0.0,0.0,0.0,0.0,0.0,0.0,0.0,0.0,0.0,0.0,0.0,0.0,0.0,0.0,0.0,0.0,0.0,0.0,0.0,0.0,0.0,0.0,0.0,0.0,0.0,0.0,0.0,0.0,0.0,0.0,0.0,0.0,0.0,0.0,0.0,0.0,0.0,0.0,0.0,0.0,0.0,0.0,0.0,0.0,0.0,0.0
S11_D11 hbo,0.0,0.045454545454545456,0.06565656565656566,0.0,0.0,0.0,0.0,0.05303030303030303,0.025252525252525252,0.04040404040404041,0.0,0.0,0.03282828282828283,0.05555555555555555,0.0,0.022727272727272728,0.0,0.0,0.0,0.0,0.04292929292929293,0.05808080808080808,0.04292929292929293,0.0,0.025252525252525252,0.04040404040404041,0.0,0.047979797979797977,0.015151515151515152,0.0,0.0,0.0,0.0,0.06313131313131314,0.0,0.06565656565656566,0.0,0.0,0.0,0.05808080808080808,0.06565656565656566,0.020202020202020204,0.047979797979797977,0.0,0.0,0.0,0.06565656565656566,0.0,0.0,0.0,0.0,0.0
S11_D12 hbo,0.0,0.0,0.0,0.0,0.0,0.0,0.0,0.0,0.0,0.0,0.0,0.0,0.0,0.0,0.0,0.0,0.0,0.0,0.0,0.0,0.0,0.0,0.0,0.0,0.0,0.0,0.0,0.0,0.0,0.0,0.0,0.0,0.0,0.0,0.0,0.0,0.0,0.0,0.0,0.0,0.0,0.0,0.0,0.0,0.0,0.0,0.0,0.0,0.0,0.0,0.0,0.0
S11_D13 hbo,0.0,0.04534005037783375,0.0654911838790932,0.0,0.0,0.0,0.0,0.05289672544080604,0.02518891687657431,0.04030226700251889,0.0,0.0,0.0327455919395466,0.055415617128463476,0.0,0.022670025188916875,0.0,0.0,0.0,0.0,0.042821158690176324,0.05793450881612091,0.042821158690176324,0.0,0.02518891687657431,0.04030226700251889,0.0,0.04785894206549118,0.015113350125944584,0.0,0.0,0.0,0.0,0.06297229219143577,0.0,0.0654911838790932,0.0,0.0,0.0,0.05793450881612091,0.0654911838790932,0.020151133501259445,0.04785894206549118,0.0,0.0,0.0,0.06801007556675064,0.0,0.0,0.0,0.0,0.0
S12_D10 hbo,0.0,0.0,0.0,0.0,0.0,0.0,0.0,0.0,0.0,0.0,0.0,0.0,0.0,0.0,0.0,0.0,0.0,0.0,0.0,0.0,0.0,0.0,0.0,0.0,0.0,0.0,0.0,0.0,0.0,0.0,0.0,0.0,0.0,0.0,0.0,0.0,0.0,0.0,0.0,0.0,0.0,0.0,0.0,0.0,0.0,0.0,0.0,0.0,0.0,0.0,0.0,0.0
S12_D12 hbo,0.0,0.0,0.0,0.0,0.0,0.0,0.0,0.0,0.0,0.0,0.0,0.0,0.0,0.0,0.0,0.0,0.0,0.0,0.0,0.0,0.0,0.0,0.0,0.0,0.0,0.1,0.0,0.0,0.0,0.0,0.1,0.0,0.0,0.0,0.0,0.0,0.0,0.2,0.0,0.0,0.0,0.0,0.0,0.3,0.0,0.3,0.0,0.0,0.0,0.0,0.0,0.0
S12_D14 hbo,0.0,0.0,0.0,0.0,0.0,0.0,0.0,0.0,0.0,0.0,0.0,0.0,0.0,0.0,0.0,0.0,0.0,0.0,0.0,0.0,0.0,0.0,0.0,0.0,0.0,0.0,0.0,0.0,0.0,0.0,0.0,0.0,0.0,0.0,0.0,0.0,0.0,0.0,0.0,0.0,0.0,0.0,0.0,0.0,0.0,0.0,0.0,0.0,0.0,0.0,0.0,0.0
S13_D6 hbo,0.0,0.046632124352331605,0.06217616580310881,0.0,0.0,0.0,0.0,0.054404145077720206,0.025906735751295335,0.04145077720207254,0.0,0.0,0.03367875647668394,0.054404145077720206,0.0,0.023316062176165803,0.0,0.0,0.0,0.0,0.04404145077720207,0.05958549222797927,0.04404145077720207,0.0,0.025906735751295335,0.04145077720207254,0.0,0.04922279792746114,0.015544041450777202,0.0,0.0,0.0,0.0,0.06217616580310881,0.0,0.06217616580310881,0.0,0.0,0.0,0.05958549222797927,0.06217616580310881,0.02072538860103627,0.04922279792746114,0.0,0.0,0.0,0.06217616580310881,0.0,0.0,0.0,0.0,0.0
S13_D11 hbo,0.0,0.04534005037783375,0.0654911838790932,0.0,0.0,0.0,0.0,0.05289672544080604,0.02518891687657431,0.04030226700251889,0.0,0.0,0.0327455919395466,0.055415617128463476,0.0,0.022670025188916875,0.0,0.0,0.0,0.0,0.042821158690176324,0.05793450881612091,0.042821158690176324,0.0,0.02518891687657431,0.04030226700251889,0.0,0.04785894206549118,0.015113350125944584,0.0,0.0,0.0,0.0,0.06297229219143577,0.0,0.0654911838790932,0.0,0.0,0.0,0.05793450881612091,0.0654911838790932,0.020151133501259445,0.04785894206549118,0.0,0.0,0.0,0.06801007556675064,0.0,0.0,0.0,0.0,0.0
S13_D13 hbo,0.0,0.03571428571428571,0.05714285714285714,0.0,0.0,0.0,0.0,0.05714285714285714,0.02142857142857143,0.05714285714285714,0.0,0.0,0.05714285714285714,0.05714285714285714,0.0,0.04285714285714286,0.0,0.0,0.0,0.0,0.03571428571428571,0.05714285714285714,0.05,0.0,0.02142857142857143,0.02142857142857143,0.0,0.05,0.0,0.0,0.0,0.0,0.0,0.05714285714285714,0.0,0.05714285714285714,0.0,0.0,0.0,0.05714285714285714,0.05714285714285714,0.05,0.04285714285714286,0.0,0.0,0.0,0.05714285714285714,0.0,0.0,0.0,0.0,0.0
S13_D15 hbo,0.0,0.05263157894736842,0.05817174515235457,0.0,0.0,0.0,0.0,0.05817174515235457,0.027700831024930747,0.036011080332409975,0.0,0.0,0.0332409972299169,0.04709141274238227,0.0,0.024930747922437674,0.0,0.0,0.0,0.0,0.04709141274238227,0.05263157894736842,0.04709141274238227,0.0,0.027700831024930747,0.04709141274238227,0.0,0.05263157894736842,0.019390581717451522,0.0,0.0,0.0,0.0,0.05817174515235457,0.0,0.05817174515235457,0.0,0.0,0.0,0.05817174515235457,0.05817174515235457,0.0221606648199446,0.055401662049861494,0.0,0.0,0.0,0.05817174515235457,0.0,0.0,0.0,0.0,0.0
S14_D12 hbo,0.0,0.0,0.0,0.0,0.0,0.0,0.0,0.0,0.0,0.0,0.0,0.0,0.0,0.0,0.0,0.0,0.0,0.0,0.0,0.0,0.0,0.0,0.0,0.0,0.0,0.2,0.0,0.0,0.06666666666666667,0.0,0.06666666666666667,0.0,0.0,0.0,0.0,0.0,0.0,0.13333333333333333,0.0,0.0,0.0,0.0,0.0,0.26666666666666666,0.0,0.26666666666666666,0.0,0.0,0.0,0.0,0.0,0.0
S14_D13 hbo,0.0,0.0,0.0,0.0,0.0,0.0,0.0,0.0,0.0,0.0,0.0,0.0,0.0,0.0,0.0,0.0,0.0,0.0,0.0,0.0,0.0,0.0,0.0,0.0,0.0,0.0,0.0,0.0,0.0,0.0,0.0,0.0,0.0,0.0,0.0,0.0,0.0,0.0,0.0,0.0,0.0,0.0,0.0,0.0,0.0,0.0,0.0,0.0,0.0,0.0,0.0,0.0
S14_D14 hbo,0.0,0.0,0.0,0.0,0.0,0.0,0.0,0.0,0.0,0.0,0.0,0.0,0.0,0.0,0.0,0.0,0.0,0.0,0.0,0.0,0.0,0.0,0.0,0.0,0.0,0.2,0.0,0.0,0.06666666666666667,0.0,0.06666666666666667,0.0,0.0,0.0,0.0,0.0,0.0,0.13333333333333333,0.0,0.0,0.0,0.0,0.0,0.26666666666666666,0.0,0.26666666666666666,0.0,0.0,0.0,0.0,0.0,0.0
S14_D16 hbo,0.0,0.04534005037783375,0.0654911838790932,0.0,0.0,0.0,0.0,0.05289672544080604,0.02518891687657431,0.04030226700251889,0.0,0.0,0.0327455919395466,0.055415617128463476,0.0,0.022670025188916875,0.0,0.0,0.0,0.0,0.042821158690176324,0.05793450881612091,0.042821158690176324,0.0,0.02518891687657431,0.04030226700251889,0.0,0.04785894206549118,0.015113350125944584,0.0,0.0,0.0,0.0,0.06297229219143577,0.0,0.0654911838790932,0.0,0.0,0.0,0.05793450881612091,0.0654911838790932,0.020151133501259445,0.04785894206549118,0.0,0.0,0.0,0.06801007556675064,0.0,0.0,0.0,0.0,0.0
S15_D13 hbo,0.0,0.0,0.0,0.0,0.0,0.0,0.0,0.0,0.0,0.0,0.0,0.0,0.0,0.0,0.0,0.0,0.0,0.0,0.0,0.0,0.0,0.0,0.0,0.0,0.0,0.0,0.0,0.0,0.0,0.0,0.0,0.0,0.0,0.0,0.0,0.0,0.0,0.0,0.0,0.0,0.0,0.0,0.0,0.0,0.0,0.0,0.0,0.0,0.0,0.0,0.0,0.0
S15_D15 hbo,0.0,0.0,0.0,0.0,0.0,0.0,0.0,0.0,0.0,0.0,0.0,0.0,0.0,0.0,0.0,0.0,0.0,0.0,0.0,0.0,0.0,0.0,0.0,0.0,0.0,0.0,0.0,0.0,0.0,0.0,0.0,0.0,0.0,0.0,0.0,0.0,0.0,0.0,0.0,0.0,0.0,0.0,0.0,0.0,0.0,0.0,0.0,0.0,0.0,0.0,0.0,0.0
S15_D16 hbo,0.0,0.0,0.0,0.0,0.0,0.0,0.0,0.0,0.0,0.0,0.0,0.0,0.0,0.0,0.0,0.0,0.0,0.0,0.0,0.0,0.0,0.0,0.0,0.0,0.0,0.0,0.0,0.0,0.0,0.0,0.0,0.0,0.0,0.0,0.0,0.0,0.0,0.0,0.0,0.0,0.0,0.0,0.0,0.0,0.0,0.0,0.0,0.0,0.0,0.0,0.0,0.0
S16_D14 hbo,0.0,0.0,0.0,0.0,0.0,0.0,0.0,0.0,0.0,0.0,0.0,0.0,0.0,0.0,0.0,0.0,0.0,0.0,0.0,0.0,0.0,0.0,0.0,0.0,0.0,0.0,0.0,0.0,0.0,0.0,0.0,0.0,0.0,0.0,0.0,0.0,0.0,0.0,0.0,0.0,0.0,0.0,0.0,0.0,0.0,0.0,0.0,0.0,0.0,0.0,0.0,0.0
S16_D16 hbo,0.0,0.0,0.0,0.0,0.0,0.0,0.0,0.0,0.0,0.0,0.0,0.0,0.0,0.0,0.0,0.0,0.0,0.0,0.0,0.0,0.0,0.0,0.0,0.0,0.0,0.0,0.0,0.0,0.0,0.0,0.0,0.0,0.0,0.0,0.0,0.0,0.0,0.0,0.0,0.0,0.0,0.0,0.0,0.0,0.0,0.0,0.0,0.0,0.0,0.0,0.0,0.0
