,S1_D1 hbo,S1_D3 hbo,S2_D1 hbo,S2_D2 hbo,S2_D4 hbo,S3_D1 hbo,S3_D3 hbo,S3_D4 hbo,S3_D5 hbo,S4_D2 hbo,S4_D4 hbo,S4_D6 hbo,S4_D11 hbo,S5_D3 hbo,S5_D5 hbo,S5_D7 hbo,S6_D4 hbo,S6_D5 hbo,S6_D6 hbo,S6_D8 hbo,S7_D5 hbo,S7_D7 hbo,S7_D8 hbo,S8_D6 hbo,S8_D8 hbo,S8_D15 hbo,S9_D2 hbo,S9_D9 hbo,S9_D11 hbo,S10_D9 hbo,S10_D10 hbo,S10_D12 hbo,S11_D9 hbo,S11_D11 hbo,S11_D12 hbo,S11_D13 hbo,S12_D10 hbo,S12_D12 hbo,S12_D14 hbo,S13_D6 hbo,S13_D11 hbo,S13_D13 hbo,S13_D15 hbo,S14_D12 hbo,S14_D13 hbo,S14_D14 hbo,S14_D16 hbo,S15_D13 hbo,S15_D15 hbo,S15_D16 hbo,S16_D14 hbo,S16_D16 hbo
S1_D1 hbo,0.05921052631578947,0.0,0.039473684210526314,0.0,0.05921052631578947,0.0,0.0,0.06578947368421052,0.0,0.06578947368421052,0.06578947368421052,0.0,0.06578947368421052,0.0,0.0,0.0,0.06578947368421052,0.0,0.013157894736842105,0.0,0.0,0.0,0.0,0.0,0.0,0.0,0.019736842105263157,0.06578947368421052,0.06578947368421052,0.039473684210526314,0.06578947368421052,0.0,0.0,0.0,0.03289473684210526,0.0,0.0,0.039473684210526314,0.0,0.0,0.05921052631578947,0.03289473684210526,0.0,0.046052631578947366,0.03289473684210526,0.0,0.0,0.0,0.0,0.0,0.0,0.0
S1_D3 hbo,0.0,0.0,0.0,0.0,0.0,0.0,0.0,0.0,0.0,0.0,0.0,0.0,0.0,0.0,0.0,0.0,0.0,0.0,0.0,0.0,0.0,0.0,0.0,0.0,0.0,0.0,0.0,0.0,0.0,0.0,0.0,0.0,0.0,0.0,0.0,0.0,0.0,0.0,0.0,0.0,0.0,0.0,0.0,0.0,0.0,0.0,0.0,0.0,0.0,0.0,0.0,0.0
S2_D1 hbo,0.05737704918032787,0.0,0.04918032786885246,0.0,0.05737704918032787,0.0,0.0,0.05737704918032787,0.0,0.05737704918032787,0.05737704918032787,0.0,0.05737704918032787,0.0,0.0,0.0,0.05737704918032787,0.0,0.01639344262295082,0.0,0.0,0.0,0.0,0.0,0.0,0.0,0.02459016393442623,0.05737704918032787,0.05737704918032787,0.04918032786885246,0.05737704918032787,0.0,0.0,0.0,0.040983606557377046,0.0,0.0,0.04918032786885246,0.0,0.0,0.05737704918032787,0.040983606557377046,0.0,0.05737704918032787,0.040983606557377046,0.0,0.0,0.0,0.0,0.0,0.0,0.0
S2_D2 hbo,0.0,0.0,0.0,0.0,0.0,0.0,0.0,0.0,0.0,0.0,0.0,0.0,0.0,0.0,0.0,0.0,0.0,0.0,0.0,0.0,0.0,0.0,0.0,0.0,0.0,0.0,0.0,0.0,0.0,0.0,0.0,0.0,0.0,0.0,0.0,0.0,0.0,0.0,0.0,0.0,0.0,0.0,0.0,0.0,0.0,0.0,0.0,0.0,0.0,0.0,0.0,0.0
S2_D4 hbo,0.05921052631578947,0.0,0.039473684210526314,0.0,0.05921052631578947,0.0,0.0,0.06578947368421052,0.0,0.06578947368421052,0.06578947368421052,0.0,0.06578947368421052,0.0,0.0,0.0,0.06578947368421052,0.0,0.013157894736842105,0.0,0.0,0.0,0.0,0.0,0.0,0.0,0.019736842105263157,0.06578947368421052,0.06578947368421052,0.039473684210526314,0.06578947368421052,0.0,0.0,0.0,0.03289473684210526,0.0,0.0,0.039473684210526314,0.0,0.0,0.05921052631578947,0.03289473684210526,0.0,0.046052631578947366,0.03289473684210526,0.0,0.0,0.0,0.0,0.0,0.0,0.0
S3_D1 hbo,0.0,0.0,0.0,0.0,0.0,0.0,0.0,0.0,0.0,0.0,0.0,0.0,0.0,0.0,0.0,0.0,0.0,0.0,0.0,0.0,0.0,0.0,0.0,0.0,0.0,0.0,0.0,0.0,0.0,0.0,0.0,0.0,0.0,0.0,0.0,0.0,0.0,0.0,0.0,0.0,0.0,0.0,0.0,0.0,0.0,0.0,0.0,0.0,0.0,0.0,0.0,0.0
S3_D3 hbo,0.0,0.0,0.0,0.0,0.0,0.0,0.0,0.0,0.0,0.0,0.0,0.0,0.0,0.0,0.0,0.0,0.0,0.0,0.0,0.0,0.0,0.0,0.0,0.0,0.0,0.0,0.0,0.0,0.0,0.0,0.0,0.0,0.0,0.0,0.0,0.0,0.0,0.0,0.0,0.0,0.0,0.0,0.0,0.0,0.0,0.0,0.0,0.0,0.0,0.0,0.0,0.0
S3_D4 hbo,0.05555555555555555,0.0,0.037037037037037035,0.0,0.05555555555555555,0.0,0.0,0.06790123456790123,0.0,0.07407407407407407,0.07407407407407407,0.0,0.07407407407407407,0.0,0.0,0.0,0.06172839506172839,0.0,0.012345679012345678,0.0,0.0,0.0,0.0,0.0,0.0,0.0,0.018518518518518517,0.06790123456790123,0.07407407407407407,0.037037037037037035,0.06172839506172839,0.0,0.0,0.0,0.030864197530864196,0.0,0.0,0.037037037037037035,0.0,0.0,0.05555555555555555,0.030864197530864196,0.0,0.043209876543209874,0.030864197530864196,0.0,0.0,0.0,0.0,0.0,0.0,0.0
S3_D5 hbo,0.0,0.0,0.0,0.0,0.0,0.0,0.0,0.0,0.0,0.0,0.0,0.0,0.0,0.0,0.0,0.0,0.0,0.0,0.0,0.0,0.0,0.0,0.0,0.0,0.0,0.0,0.0,0.0,0.0,0.0,0.0,0.0,0.0,0.0,0.0,0.0,0.0,0.0,0.0,0.0,0.0,0.0,0.0,0.0,0.0,0.0,0.0,0.0,0.0,0.0,0.0,0.0
S4_D2 hbo,0.05454545454545454,0.0,0.03636363636363636,0.0,0.05454545454545454,0.0,0.0,0.06666666666666667,0.0,0.07878787878787878,0.07272727272727272,0.0,0.08484848484848485,0.0,0.0,0.0,0.06060606060606061,0.0,0.012121212121212121,0.0,0.0,0.0,0.0,0.0,0.0,0.0,0.01818181818181818,0.06666666666666667,0.07272727272727272,0.03636363636363636,0.06060606060606061,0.0,0.0,0.0,0.030303030303030304,0.0,0.0,0.03636363636363636,0.0,0.0,0.05454545454545454,0.030303030303030304,0.0,0.04242424242424243,0.030303030303030304,0.0,0.0,0.0,0.0,0.0,0.0,0.0
S4_D4 hbo,0.054878048780487805,0.0,0.036585365853658534,0.0,0.054878048780487805,0.0,0.0,0.06707317073170732,0.0,0.07926829268292683,0.07317073170731707,0.0,0.07926829268292683,0.0,0.0,0.0,0.06097560975609756,0.0,0.012195121951219513,0.0,0.0,0.0,0.0,0.0,0.0,0.0,0.018292682926829267,0.06707317073170732,0.07317073170731707,0.036585365853658534,0.06097560975609756,0.0,0.0,0.0,0.03048780487804878,0.0,0.0,0.036585365853658534,0.0,0.0,0.054878048780487805,0.03048780487804878,0.0,0.042682926829268296,0.03048780487804878,0.0,0.0,0.0,0.0,0.0,0.0,0.0
S4_D6 hbo,0.0,0.0,0.0,0.0,0.0,0.0,0.0,0.0,0.0,0.0,0.0,0.0,0.0,0.0,0.0,0.0,0.0,0.0,0.0,0.0,0.0,0.0,0.0,0.0,0.0,0.0,0.0,0.0,0.0,0.0,0.0,0.0,0.0,0.0,0.0,0.0,0.0,0.0,0.0,0.0,0.0,0.0,0.0,0.0,0.0,0.0,0.0,0.0,0.0,0.0,0.0,0.0
S4_D11 hbo,0.05421686746987952,0.0,0.03614457831325301,0.0,0.05421686746987952,0.0,0.0,0.06626506024096386,0.0,0.0783132530120482,0.07228915662650602,0.0,0.09036144578313253,0.0,0.0,0.0,0.060240963855421686,0.0,0.012048192771084338,0.0,0.0,0.0,0.0,0.0,0.0,0.0,0.018072289156626505,0.06626506024096386,0.07228915662650602,0.03614457831325301,0.060240963855421686,0.0,0.0,0.0,0.030120481927710843,0.0,0.0,0.03614457831325301,0.0,0.0,0.05421686746987952,0.030120481927710843,0.0,0.04216867469879518,0.030120481927710843,0.0,0.0,0.0,0.0,0.0,0.0,0.0
S5_D3 hbo,0.0,0.0,0.0,0.0,0.0,0.0,0.0,0.0,0.0,0.0,0.0,0.0,0.0,0.0,0.0,0.0,0.0,0.0,0.0,0.0,0.0,0.0,0.0,0.0,0.0,0.0,0.0,0.0,0.0,0.0,0.0,0.0,0.0,0.0,0.0,0.0,0.0,0.0,0.0,0.0,0.0,0.0,0.0,0.0,0.0,0.0,0.0,0.0,0.0,0.0,0.0,0.0
S5_D5 hbo,0.0,0.0,0.0,0.0,0.0,0.0,0.0,0.0,0.0,0.0,0.0,0.0,0.0,0.0,0.0,0.0,0.0,0.0,0.0,0.0,0.0,0.0,0.0,0.0,0.0,0.0,0.0,0.0,0.0,0.0,0.0,0.0,0.0,0.0,0.0,0.0,0.0,0.0,0.0,0.0,0.0,0.0,0.0,0.0,0.0,0.0,0.0,0.0,0.0,0.0,0.0,0.0
S5_D7 hbo,0.0,0.0,0.0,0.0,0.0,0.0,0.0,0.0,0.0,0.0,0.0,0.0,0.0,0.0,0.0,0.0,0.0,0.0,0.0,0.0,0.0,0.0,0.0,0.0,0.0,0.0,0.0,0.0,0.0,0.0,0.0,0.0,0.0,0.0,0.0,0.0,0.0,0.0,0.0,0.0,0.0,0.0,0.0,0.0,0.0,0.0,0.0,0.0,0.0,0.0,0.0,0.0
S6_D4 hbo,0.056962025316455694,0.0,0.0379746835443038,0.0,0.056962025316455694,0.0,0.0,0.06962025316455696,0.0,0.06962025316455696,0.06962025316455696,0.0,0.06962025316455696,0.0,0.0,0.0,0.06329113924050633,0.0,0.012658227848101266,0.0,0.0,0.0,0.0,0.0,0.0,0.0,0.0189873417721519,0.06962025316455696,0.06962025316455696,0.0379746835443038,0.06329113924050633,0.0,0.0,0.0,0.03164556962025317,0.0,0.0,0.0379746835443038,0.0,0.0,0.056962025316455694,0.03164556962025317,0.0,0.04430379746835443,0.03164556962025317,0.0,0.0,0.0,0.0,0.0,0.0,0.0
S6_D5 hbo,0.05,0.0,0.05,0.0,0.05,0.0,0.0,0.05,0.0,0.05,0.05,0.0,0.05,0.0,0.0,0.0,0.05,0.0,0.05,0.0,0.0,0.0,0.0,0.0,0.0,0.0,0.05,0.05,0.05,0.05,0.05,0.0,0.0,0.0,0.05,0.0,0.0,0.05,0.0,0.0,0.05,0.05,0.0,0.05,0.05,0.0,0.0,0.0,0.0,0.0,0.0,0.0
S6_D6 hbo,0.05084745762711865,0.0,0.05084745762711865,0.0,0.05084745762711865,0.0,0.0,0.05084745762711865,0.0,0.05084745762711865,0.05084745762711865,0.0,0.05084745762711865,0.0,0.0,0.0,0.05084745762711865,0.0,0.03389830508474576,0.0,0.0,0.0,0.0,0.0,0.0,0.0,0.05084745762711865,0.05084745762711865,0.05084745762711865,0.05084745762711865,0.05084745762711865,0.0,0.0,0.0,0.05084745762711865,0.0,0.0,0.05084745762711865,0.0,0.0,0.05084745762711865,0.05084745762711865,0.0,0.05084745762711865,0.05084745762711865,0.0,0.0,0.0,0.0,0.0,0.0,0.0
S6_D8 hbo,0.0,0.0,0.0,0.0,0.0,0.0,0.0,0.0,0.0,0.0,0.0,0.0,0.0,0.0,0.0,0.0,0.0,0.0,0.0,0.0,0.0,0.0,0.0,0.0,0.0,0.0,0.0,0.0,0.0,0.0,0.0,0.0,0.0,0.0,0.0,0.0,0.0,0.0,0.0,0.0,0.0,0.0,0.0,0.0,0.0,0.0,0.0,0.0,0.0,0.0,0.0,0.0
S7_D5 hbo,0.0,0.0,0.0,0.0,0.0,0.0,0.0,0.0,0.0,0.0,0.0,0.0,0.0,0.0,0.0,0.0,0.0,0.0,0.0,0.0,0.0,0.0,0.0,0.0,0.0,0.0,0.0,0.0,0.0,0.0,0.0,0.0,0.0,0.0,0.0,0.0,0.0,0.0,0.0,0.0,0.0,0.0,0.0,0.0,0.0,0.0,0.0,0.0,0.0,0.0,0.0,0.0
S7_D7 hbo,0.0,0.0,0.0,0.0,0.0,0.0,0.0,0.0,0.0,0.0,0.0,0.0,0.0,0.0,0.0,0.0,0.0,0.0,0.0,0.0,0.0,0.0,0.0,0.0,0.0,0.0,0.0,0.0,0.0,0.0,0.0,0.0,0.0,0.0,0.0,0.0,0.0,0.0,0.0,0.0,0.0,0.0,0.0,0.0,0.0,0.0,0.0,0.0,0.0,0.0,0.0,0.0
S7_D8 hbo,0.0,0.0,0.0,0.0,0.0,0.0,0.0,0.0,0.0,0.0,0.0,0.0,0.0,0.0,0.0,0.0,0.0,0.0,0.0,0.0,0.0,0.0,0.0,0.0,0.0,0.0,0.0,0.0,0.0,0.0,0.0,0.0,0.0,0.0,0.0,0.0,0.0,0.0,0.0,0.0,0.0,0.0,0.0,0.0,0.0,0.0,0.0,0.0,0.0,0.0,0.0,0.0
S8_D6 hbo,0.0,0.0,0.0,0.0,0.0,0.0,0.0,0.0,0.0,0.0,0.0,0.0,0.0,0.0,0.0,0.0,0.0,0.0,0.0,0.0,0.0,0.0,0.0,0.0,0.0,0.0,0.0,0.0,0.0,0.0,0.0,0.0,0.0,0.0,0.0,0.0,0.0,0.0,0.0,0.0,0.0,0.0,0.0,0.0,0.0,0.0,0.0,0.0,0.0,0.0,0.0,0.0
S8_D8 hbo,0.0,0.0,0.0,0.0,0.0,0.0,0.0,0.0,0.0,0.0,0.0,0.0,0.0,0.0,0.0,0.0,0.0,0.0,0.0,0.0,0.0,0.0,0.0,0.0,0.0,0.0,0.0,0.0,0.0,0.0,0.0,0.0,0.0,0.0,0.0,0.0,0.0,0.0,0.0,0.0,0.0,0.0,0.0,0.0,0.0,0.0,0.0,0.0,0.0,0.0,0.0,0.0
S8_D15 hbo,0.0,0.0,0.0,0.0,0.0,0.0,0.0,0.0,0.0,0.0,0.0,0.0,0.0,0.0,0.0,0.0,0.0,0.0,0.0,0.0,0.0,0.0,0.0,0.0,0.0,0.0,0.0,0.0,0.0,0.0,0.0,0.0,0.0,0.0,0.0,0.0,0.0,0.0,0.0,0.0,0.0,0.0,0.0,0.0,0.0,0.0,0.0,0.0,0.0,0.0,0.0,0.0
S9_D2 hbo,0.05194805194805195,0.0,0.05194805194805195,0.0,0.05194805194805195,0.0,0.0,0.05194805194805195,0.0,0.05194805194805195,0.05194805194805195,0.0,0.05194805194805195,0.0,0.0,0.0,0.05194805194805195,0.0,0.025974025974025976,0.0,0.0,0.0,0.0,0.0,0.0,0.0,0.03896103896103896,0.05194805194805195,0.05194805194805195,0.05194805194805195,0.05194805194805195,0.0,0.0,0.0,0.05194805194805195,0.0,0.0,0.05194805194805195,0.0,0.0,0.05194805194805195,0.05194805194805195,0.0,0.05194805194805195,0.05194805194805195,0.0,0.0,0.0,0.0,0.0,0.0,0.0
S9_D9 hbo,0.05555555555555555,0.0,0.037037037037037035,0.0,0.05555555555555555,0.0,0.0,0.06790123456790123,0.0,0.07407407407407407,0.07407407407407407,0.0,0.07407407407407407,0.0,0.0,0.0,0.06172839506172839,0.0,0.012345679012345678,0.0,0.0,0.0,0.0,0.0,0.0,0.0,0.018518518518518517,0.06790123456790123,0.07407407407407407,0.037037037037037035,0.06172839506172839,0.0,0.0,0.0,0.030864197530864196,0.0,0.0,0.037037037037037035,0.0,0.0,0.05555555555555555,0.030864197530864196,0.0,0.043209876543209874,0.030864197530864196,0.0,0.0,0.0,0.0,0.0,0.0,0.0
S9_D11 hbo,0.054878048780487805,0.0,0.036585365853658534,0.0,0.054878048780487805,0.0,0.0,0.06707317073170732,0.0,0.07926829268292683,0.07317073170731707,0.0,0.07926829268292683,0.0,0.0,0.0,0.06097560975609756,0.0,0.012195121951219513,0.0,0.0,0.0,0.0,0.0,0.0,0.0,0.018292682926829267,0.06707317073170732,0.07317073170731707,0.036585365853658534,0.06097560975609756,0.0,0.0,0.0,0.03048780487804878,0.0,0.0,0.036585365853658534,0.0,0.0,0.054878048780487805,0.03048780487804878,0.0,0.042682926829268296,0.03048780487804878,0.0,0.0,0.0,0.0,0.0,0.0,0.0
S10_D9 hbo,0.05737704918032787,0.0,0.04918032786885246,0.0,0.05737704918032787,0.0,0.0,0.05737704918032787,0.0,0.05737704918032787,0.05737704918032787,0.0,0.05737704918032787,0.0,0.0,0.0,0.05737704918032787,0.0,0.01639344262295082,0.0,0.0,0.0,0.0,0.0,0.0,0.0,0.02459016393442623,0.05737704918032787,0.05737704918032787,0.04918032786885246,0.05737704918032787,0.0,0.0,0.0,0.040983606557377046,0.0,0.0,0.04918032786885246,0.0,0.0,0.05737704918032787,0.040983606557377046,0.0,0.05737704918032787,0.040983606557377046,0.0,0.0,0.0,0.0,0.0,0.0,0.0
S10_D10 hbo,0.056962025316455694,0.0,0.0379746835443038,0.0,0.056962025316455694,0.0,0.0,0.06962025316455696,0.0,0.06962025316455696,0.06962025316455696,0.0,0.06962025316455696,0.0,0.0,0.0,0.06329113924050633,0.0,0.012658227848101266,0.0,0.0,0.0,0.0,0.0,0.0,0.0,0.0189873417721519,0.06962025316455696,0.06962025316455696,0.0379746835443038,0.06329113924050633,0.0,0.0,0.0,0.03164556962025317,0.0,0.0,0.0379746835443038,0.0,0.0,0.056962025316455694,0.03164556962025317,0.0,0.04430379746835443,0.03164556962025317,0.0,0.0,0.0,0.0,0.0,0.0,0.0
S10_D12 hbo,0.0,0.0,0.0,0.0,0.0,0.0,0.0,0.0,0.0,0.0,0.0,0.0,0.0,0.0,0.0,0.0,0.0,0.0,0.0,0.0,0.0,0.0,0.0,0.0,0.0,0.0,0.0,0.0,0.0,0.0,0.0,0.0,0.0,0.0,0.0,0.0,0.0,0.0,0.0,0.0,0.0,0.0,0.0,0.0,0.0,0.0,0.0,0.0,0.0,0.0,0.0,0.0
S11_D9 hbo,0.0,0.0,0.0,0.0,0.0,0.0,0.0,0.0,0.0,0.0,0.0,0.0,0.0,0.0,0.0,0.0,0.0,0.0,0.0,0.0,0.0,0.0,0.0,0.0,0.0,0.0,0.0,0.0,0.0,0.0,0.0,0.0,0.0,0.0,0.0,0.0,0.0,0.0,0.0,0.0,0.0,0.0,0.0,0.0,0.0,0.0,0.0,0.0,0.0,0.0,0.0,0.0
S11_D11 hbo,0.0,0.0,0.0,0.0,0.0,0.0,0.0,0.0,0.0,0.0,0.0,0.0,0.0,0.0,0.0,0.0,0.0,0.0,0.0,0.0,0.0,0.0,0.0,0.0,0.0,0.0,0.0,0.0,0.0,0.0,0.0,0.0,0.0,0.0,0.0,0.0,0.0,0.0,0.0,0.0,0.0,0.0,0.0,0.0,0.0,0.0,0.0,0.0,0.0,0.0,0.0,0.0
S11_D12 hbo,0.05454545454545454,0.0,0.05454545454545454,0.0,0.05454545454545454,0.0,0.0,0.05454545454545454,0.0,0.05454545454545454,0.05454545454545454,0.0,0.05454545454545454,0.0,0.0,0.0,0.05454545454545454,0.0,0.01818181818181818,0.0,0.0,0.0,0.0,0.0,0.0,0.0,0.02727272727272727,0.05454545454545454,0.05454545454545454,0.05454545454545454,0.05454545454545454,0.0,0.0,0.0,0.045454545454545456,0.0,0.0,0.05454545454545454,0.0,0.0,0.05454545454545454,0.045454545454545456,0.0,0.05454545454545454,0.045454545454545456,0.0,0.0,0.0,0.0,0.0,0.0,0.0
S11_D13 hbo,0.0,0.0,0.0,0.0,0.0,0.0,0.0,0.0,0.0,0.0,0.0,0.0,0.0,0.0,0.0,0.0,0.0,0.0,0.0,0.0,0.0,0.0,0.0,0.0,0.0,0.0,0.0,0.0,0.0,0.0,0.0,0.0,0.0,0.0,0.0,0.0,0.0,0.0,0.0,0.0,0.0,0.0,0.0,0.0,0.0,0.0,0.0,0.0,0.0,0.0,0.0,0.0
S12_D10 hbo,0.0,0.0,0.0,0.0,0.0,0.0,0.0,0.0,0.0,0.0,0.0,0.0,0.0,0.0,0.0,0.0,0.0,0.0,0.0,0.0,0.0,0.0,0.0,0.0,0.0,0.0,0.0,0.0,0.0,0.0,0.0,0.0,0.0,0.0,0.0,0.0,0.0,0.0,0.0,0.0,0.0,0.0,0.0,0.0,0.0,0.0,0.0,0.0,0.0,0.0,0.0,0.0
S12_D12 hbo,0.05737704918032787,0.0,0.04918032786885246,0.0,0.05737704918032787,0.0,0.0,0.05737704918032787,0.0,0.05737704918032787,0.05737704918032787,0.0,0.05737704918032787,0.0,0.0,0.0,0.05737704918032787,0.0,0.01639344262295082,0.0,0.0,0.0,0.0,0.0,0.0,0.0,0.02459016393442623,0.05737704918032787,0.05737704918032787,0.04918032786885246,0.05737704918032787,0.0,0.0,0.0,0.040983606557377046,0.0,0.0,0.04918032786885246,0.0,0.0,0.05737704918032787,0.040983606557377046,0.0,0.05737704918032787,0.040983606557377046,0.0,0.0,0.0,0.0,0.0,0.0,0.0
S12_D14 hbo,0.0,0.0,0.0,0.0,0.0,0.0,0.0,0.0,0.0,0.0,0.0,0.0,0.0,0.0,0.0,0.0,0.0,0.0,0.0,0.0,0.0,0.0,0.0,0.0,0.0,0.0,0.0,0.0,0.0,0.0,0.0,0.0,0.0,0.0,0.0,0.0,0.0,0.0,0.0,0.0,0.0,0.0,0.0,0.0,0.0,0.0,0.0,0.0,0.0,0.0,0.0,0.0
S13_D6 hbo,0.0,0.0,0.0,0.0,0.0,0.0,0.0,0.0,0.0,0.0,0.0,0.0,0.0,0.0,0.0,0.0,0.0,0.0,0.0,0.0,0.0,0.0,0.0,0.0,0.0,0.0,0.0,0.0,0.0,0.0,0.0,0.0,0.0,0.0,0.0,0.0,0.0,0.0,0.0,0.0,0.0,0.0,0.0,0.0,0.0,0.0,0.0,0.0,0.0,0.0,0.0,0.0
S13_D11 hbo,0.05921052631578947,0.0,0.039473684210526314,0.0,0.05921052631578947,0.0,0.0,0.06578947368421052,0.0,0.06578947368421052,0.06578947368421052,0.0,0.06578947368421052,0.0,0.0,0.0,0.06578947368421052,0.0,0.013157894736842105,0.0,0.0,0.0,0.0,0.0,0.0,0.0,0.019736842105263157,0.06578947368421052,0.06578947368421052,0.039473684210526314,0.06578947368421052,0.0,0.0,0.0,0.03289473684210526,0.0,0.0,0.039473684210526314,0.0,0.0,0.05921052631578947,0.03289473684210526,0.0,0.046052631578947366,0.03289473684210526,0.0,0.0,0.0,0.0,0.0,0.0,0.0
S13_D13 hbo,0.05454545454545454,0.0,0.05454545454545454,0.0,0.05454545454545454,0.0,0.0,0.05454545454545454,0.0,0.05454545454545454,0.05454545454545454,0.0,0.05454545454545454,0.0,0.0,0.0,0.05454545454545454,0.0,0.01818181818181818,0.0,0.0,0.0,0.0,0.0,0.0,0.0,0.02727272727272727,0.05454545454545454,0.05454545454545454,0.05454545454545454,0.05454545454545454,0.0,0.0,0.0,0.045454545454545456,0.0,0.0,0.05454545454545454,0.0,0.0,0.05454545454545454,0.045454545454545456,0.0,0.05454545454545454,0.045454545454545456,0.0,0.0,0.0,0.0,0.0,0.0,0.0
S13_D15 hbo,0.0,0.0,0.0,0.0,0.0,0.0,0.0,0.0,0.0,0.0,0.0,0.0,0.0,0.0,0.0,0.0,0.0,0.0,0.0,0.0,0.0,0.0,0.0,0.0,0.0,0.0,0.0,0.0,0.0,0.0,0.0,0.0,0.0,0.0,0.0,0.0,0.0,0.0,0.0,0.0,0.0,0.0,0.0,0.0,0.0,0.0,0.0,0.0,0.0,0.0,0.0,0.0
S14_D12 hbo,0.06015037593984962,0.0,0.045112781954887216,0.0,0.06015037593984962,0.0,0.0,0.06015037593984962,0.0,0.06015037593984962,0.06015037593984962,0.0,0.06015037593984962,0.0,0.0,0.0,0.06015037593984962,0.0,0.015037593984962405,0.0,0.0,0.0,0.0,0.0,0.0,0.0,0.022556390977443608,0.06015037593984962,0.06015037593984962,0.045112781954887216,0.06015037593984962,0.0,0.0,0.0,0.03759398496240601,0.0,0.0,0.045112781954887216,0.0,0.0,0.06015037593984962,0.03759398496240601,0.0,0.05263157894736842,0.03759398496240601,0.0,0.0,0.0,0.0,0.0,0.0,0.0
S14_D13 hbo,0.05454545454545454,0.0,0.05454545454545454,0.0,0.05454545454545454,0.0,0.0,0.05454545454545454,0.0,0.05454545454545454,0.05454545454545454,0.0,0.05454545454545454,0.0,0.0,0.0,0.05454545454545454,0.0,0.01818181818181818,0.0,0.0,0.0,0.0,0.0,0.0,0.0,0.02727272727272727,0.05454545454545454,0.05454545454545454,0.05454545454545454,0.05454545454545454,0.0,0.0,0.0,0.045454545454545456,0.0,0.0,0.05454545454545454,0.0,0.0,0.05454545454545454,0.045454545454545456,0.0,0.05454545454545454,0.045454545454545456,0.0,0.0,0.0,0.0,0.0,0.0,0.0
S14_D14 hbo,0.0,0.0,0.0,0.0,0.0,0.0,0.0,0.0,0.0,0.0,0.0,0.0,0.0,0.0,0.0,0.0,0.0,0.0,0.0,0.0,0.0,0.0,0.0,0.0,0.0,0.0,0.0,0.0,0.0,0.0,0.0,0.0,0.0,0.0,0.0,0.0,0.0,0.0,0.0,0.0,0.0,0.0,0.0,0.0,0.0,0.0,0.0,0.0,0.0,0.0,0.0,0.0
S14_D16 hbo,0.0,0.0,0.0,0.0,0.0,0.0,0.0,0.0,0.0,0.0,0.0,0.0,0.0,0.0,0.0,0.0,0.0,0.0,0.0,0.0,0.0,0.0,0.0,0.0,0.0,0.0,0.0,0.0,0.0,0.0,0.0,0.0,0.0,0.0,0.0,0.0,0.0,0.0,0.0,0.0,0.0,0.0,0.0,0.0,0.0,0.0,0.0,0.0,0.0,0.0,0.0,0.0
S15_D13 hbo,0.0,0.0,0.0,0.0,0.0,0.0,0.0,0.0,0.0,0.0,0.0,0.0,0.0,0.0,0.0,0.0,0.0,0.0,0.0,0.0,0.0,0.0,0.0,0.0,0.0,0.0,0.0,0.0,0.0,0.0,0.0,0.0,0.0,0.0,0.0,0.0,0.0,0.0,0.0,0.0,0.0,0.0,0.0,0.0,0.0,0.0,0.0,0.0,0.0,0.0,0.0,0.0
S15_D15 hbo,0.0,0.0,0.0,0.0,0.0,0.0,0.0,0.0,0.0,0.0,0.0,0.0,0.0,0.0,0.0,0.0,0.0,0.0,0.0,0.0,0.0,0.0,0.0,0.0,0.0,0.0,0.0,0.0,0.0,0.0,0.0,0.0,0.0,0.0,0.0,0.0,0.0,0.0,0.0,0.0,0.0,0.0,0.0,0.0,0.0,0.0,0.0,0.0,0.0,0.0,0.0,0.0
S15_D16 hbo,0.0,0.0,0.0,0.0,0.0,0.0,0.0,0.0,0.0,0.0,0.0,0.0,0.0,0.0,0.0,0.0,0.0,0.0,0.0,0.0,0.0,0.0,0.0,0.0,0.0,0.0,0.0,0.0,0.0,0.0,0.0,0.0,0.0,0.0,0.0,0.0,0.0,0.0,0.0,0.0,0.0,0.0,0.0,0.0,0.0,0.0,0.0,0.0,0.0,0.0,0.0,0.0
S16_D14 hbo,0.0,0.0,0.0,0.0,0.0,0.0,0.0,0.0,0.0,0.0,0.0,0.0,0.0,0.0,0.0,0.0,0.0,0.0,0.0,0.0,0.0,0.0,0.0,0.0,0.0,0.0,0.0,0.0,0.0,0.0,0.0,0.0,0.0,0.0,0.0,0.0,0.0,0.0,0.0,0.0,0.0,0.0,0.0,0.0,0.0,0.0,0.0,0.0,0.0,0.0,0.0,0.0
S16_D16 hbo,0.0,0.0,0.0,0.0,0.0,0.0,0.0,0.0,0.0,0.0,0.0,0.0,0.0,0.0,0.0,0.0,0.0,0.0,0.0,0.0,0.0,0.0,0.0,0.0,0.0,0.0,0.0,0.0,0.0,0.0,0.0,0.0,0.0,0.0,0.0,0.0,0.0,0.0,0.0,0.0,0.0,0.0,0.0,0.0,0.0,0.0,0.0,0.0,0.0,0.0,0.0,0.0
