,S1_D1 hbo,S1_D3 hbo,S2_D1 hbo,S2_D2 hbo,S2_D4 hbo,S3_D1 hbo,S3_D3 hbo,S3_D4 hbo,S3_D5 hbo,S4_D2 hbo,S4_D4 hbo,S4_D6 hbo,S4_D11 hbo,S5_D3 hbo,S5_D5 hbo,S5_D7 hbo,S6_D4 hbo,S6_D5 hbo,S6_D6 hbo,S6_D8 hbo,S7_D5 hbo,S7_D7 hbo,S7_D8 hbo,S8_D6 hbo,S8_D8 hbo,S8_D15 hbo,S9_D2 hbo,S9_D9 hbo,S9_D11 hbo,S10_D9 hbo,S10_D10 hbo,S10_D12 hbo,S11_D9 hbo,S11_D11 hbo,S11_D12 hbo,S11_D13 hbo,S12_D10 hbo,S12_D12 hbo,S12_D14 hbo,S13_D6 hbo,S13_D11 hbo,S13_D13 hbo,S13_D15 hbo,S14_D12 hbo,S14_D13 hbo,S14_D14 hbo,S14_D16 hbo,S15_D13 hbo,S15_D15 hbo,S15_D16 hbo,S16_D14 hbo,S16_D16 hbo
S1_D1 hbo,0.042105263157894736,0.0,0.0,0.0,0.0,0.0,0.0,0.042105263157894736,0.0,0.0,0.0,0.05263157894736842,0.05263157894736842,0.05263157894736842,0.0,0.0,0.05263157894736842,0.05263157894736842,0.05263157894736842,0.0,0.0,0.0,0.0,0.05263157894736842,0.0,0.0,0.0,0.05263157894736842,0.0,0.0,0.0,0.0,0.0,0.0,0.0,0.0,0.0,0.0,0.0,0.05263157894736842,0.0,0.05263157894736842,0.021052631578947368,0.05263157894736842,0.05263157894736842,0.0,0.05263157894736842,0.05263157894736842,0.05263157894736842,0.05263157894736842,0.0,0.05263157894736842
S1_D3 hbo,0.0,0.0,0.0,0.0,0.0,0.0,0.0,0.0,0.0,0.0,0.0,0.0,0.0,0.0,0.0,0.0,0.0,0.0,0.0,0.0,0.0,0.0,0.0,0.0,0.0,0.0,0.0,0.0,0.0,0.0,0.0,0.0,0.0,0.0,0.0,0.0,0.0,0.0,0.0,0.0,0.0,0.0,0.0,0.0,0.0,0.0,0.0,0.0,0.0,0.0,0.0,0.0
S2_D1 hbo,0.0,0.0,0.0,0.0,0.0,0.0,0.0,0.0,0.0,0.0,0.0,0.0,0.0,0.0,0.0,0.0,0.0,0.0,0.0,0.0,0.0,0.0,0.0,0.0,0.0,0.0,0.0,0.0,0.0,0.0,0.0,0.0,0.0,0.0,0.0,0.0,0.0,0.0,0.0,0.0,0.0,0.0,0.0,0.0,0.0,0.0,0.0,0.0,0.0,0.0,0.0,0.0
S2_D2 hbo,0.0,0.0,0.0,0.0,0.0,0.0,0.0,0.0,0.0,0.0,0.0,0.0,0.0,0.0,0.0,0.0,0.0,0.0,0.0,0.0,0.0,0.0,0.0,0.0,0.0,0.0,0.0,0.0,0.0,0.0,0.0,0.0,0.0,0.0,0.0,0.0,0.0,0.0,0.0,0.0,0.0,0.0,0.0,0.0,0.0,0.0,0.0,0.0,0.0,0.0,0.0,0.0
S2_D4 hbo,0.0,0.0,0.0,0.0,0.0,0.0,0.0,0.0,0.0,0.0,0.0,0.0,0.0,0.0,0.0,0.0,0.0,0.0,0.0,0.0,0.0,0.0,0.0,0.0,0.0,0.0,0.0,0.0,0.0,0.0,0.0,0.0,0.0,0.0,0.0,0.0,0.0,0.0,0.0,0.0,0.0,0.0,0.0,0.0,0.0,0.0,0.0,0.0,0.0,0.0,0.0,0.0
S3_D1 hbo,0.0,0.0,0.0,0.0,0.0,0.0,0.0,0.0,0.0,0.0,0.0,0.0,0.0,0.0,0.0,0.0,0.0,0.0,0.0,0.0,0.0,0.0,0.0,0.0,0.0,0.0,0.0,0.0,0.0,0.0,0.0,0.0,0.0,0.0,0.0,0.0,0.0,0.0,0.0,0.0,0.0,0.0,0.0,0.0,0.0,0.0,0.0,0.0,0.0,0.0,0.0,0.0
S3_D3 hbo,0.0,0.0,0.0,0.0,0.0,0.0,0.0,0.0,0.0,0.0,0.0,0.0,0.0,0.0,0.0,0.0,0.0,0.0,0.0,0.0,0.0,0.0,0.0,0.0,0.0,0.0,0.0,0.0,0.0,0.0,0.0,0.0,0.0,0.0,0.0,0.0,0.0,0.0,0.0,0.0,0.0,0.0,0.0,0.0,0.0,0.0,0.0,0.0,0.0,0.0,0.0,0.0
S3_D4 hbo,0.023255813953488372,0.0,0.0,0.0,0.0,0.0,0.0,0.046511627906976744,0.0,0.0,0.0,0.046511627906976744,0.05813953488372093,0.05813953488372093,0.0,0.0,0.03488372093023256,0.05813953488372093,0.05813953488372093,0.0,0.0,0.0,0.0,0.046511627906976744,0.0,0.0,0.0,0.05813953488372093,0.0,0.0,0.0,0.0,0.0,0.0,0.0,0.0,0.0,0.0,0.0,0.05813953488372093,0.0,0.05813953488372093,0.023255813953488372,0.03488372093023256,0.05813953488372093,0.0,0.05813953488372093,0.05813953488372093,0.05813953488372093,0.046511627906976744,0.0,0.05813953488372093
S3_D5 hbo,0.0,0.0,0.0,0.0,0.0,0.0,0.0,0.0,0.0,0.0,0.0,0.0,0.0,0.0,0.0,0.0,0.0,0.0,0.0,0.0,0.0,0.0,0.0,0.0,0.0,0.0,0.0,0.0,0.0,0.0,0.0,0.0,0.0,0.0,0.0,0.0,0.0,0.0,0.0,0.0,0.0,0.0,0.0,0.0,0.0,0.0,0.0,0.0,0.0,0.0,0.0,0.0
S4_D2 hbo,0.0,0.0,0.0,0.0,0.0,0.0,0.0,0.0,0.0,0.23529411764705882,0.0,0.0,0.0,0.0,0.0,0.0,0.0,0.0,0.0,0.0,0.0,0.0,0.0,0.0,0.0,0.0,0.0,0.0,0.0,0.11764705882352941,0.11764705882352941,0.0,0.0,0.17647058823529413,0.14705882352941177,0.0,0.0,0.058823529411764705,0.0,0.0,0.08823529411764706,0.0,0.0,0.0,0.0,0.0,0.0,0.0,0.0,0.0,0.058823529411764705,0.0
S4_D4 hbo,0.0,0.0,0.0,0.0,0.0,0.0,0.0,0.0,0.0,0.0,0.0,0.0,0.0,0.0,0.0,0.0,0.0,0.0,0.0,0.0,0.0,0.0,0.0,0.0,0.0,0.0,0.0,0.0,0.0,0.0,0.0,0.0,0.0,0.0,0.0,0.0,0.0,0.0,0.0,0.0,0.0,0.0,0.0,0.0,0.0,0.0,0.0,0.0,0.0,0.0,0.0,0.0
S4_D6 hbo,0.02830188679245283,0.0,0.0,0.0,0.0,0.0,0.0,0.04716981132075472,0.0,0.0,0.0,0.05660377358490566,0.05660377358490566,0.05660377358490566,0.0,0.0,0.03773584905660377,0.05660377358490566,0.05660377358490566,0.0,0.0,0.0,0.0,0.04716981132075472,0.0,0.0,0.0,0.05660377358490566,0.0,0.0,0.0,0.0,0.0,0.0,0.0,0.0,0.0,0.0,0.0,0.05660377358490566,0.0,0.05660377358490566,0.018867924528301886,0.03773584905660377,0.05660377358490566,0.0,0.05660377358490566,0.05660377358490566,0.05660377358490566,0.04716981132075472,0.0,0.05660377358490566
S4_D11 hbo,0.029940119760479042,0.0,0.0,0.0,0.0,0.0,0.0,0.029940119760479042,0.0,0.0,0.0,0.03592814371257485,0.059880239520958084,0.0658682634730539,0.0,0.0,0.029940119760479042,0.0658682634730539,0.059880239520958084,0.0,0.0,0.0,0.0,0.04790419161676647,0.0,0.0,0.0,0.059880239520958084,0.0,0.0,0.0,0.0,0.0,0.0,0.0,0.0,0.0,0.0,0.0,0.05389221556886228,0.0,0.0658682634730539,0.011976047904191617,0.029940119760479042,0.0658682634730539,0.0,0.05389221556886228,0.0658682634730539,0.059880239520958084,0.04790419161676647,0.0,0.059880239520958084
S5_D3 hbo,0.02717391304347826,0.0,0.0,0.0,0.0,0.0,0.0,0.02717391304347826,0.0,0.0,0.0,0.03260869565217391,0.059782608695652176,0.07608695652173914,0.0,0.0,0.02717391304347826,0.059782608695652176,0.05434782608695652,0.0,0.016304347826086956,0.0,0.0,0.043478260869565216,0.0,0.0,0.0,0.05434782608695652,0.0,0.0,0.0,0.0,0.0,0.0,0.0,0.0,0.0,0.0,0.0,0.04891304347826087,0.0,0.06521739130434782,0.010869565217391304,0.02717391304347826,0.06521739130434782,0.0,0.06521739130434782,0.07065217391304347,0.059782608695652176,0.04891304347826087,0.0,0.059782608695652176
S5_D5 hbo,0.0,0.0,0.0,0.0,0.0,0.0,0.0,0.0,0.0,0.0,0.0,0.0,0.0,0.0,0.0,0.0,0.0,0.0,0.0,0.0,0.0,0.0,0.0,0.0,0.0,0.0,0.0,0.0,0.0,0.0,0.0,0.0,0.0,0.0,0.0,0.0,0.0,0.0,0.0,0.0,0.0,0.0,0.0,0.0,0.0,0.0,0.0,0.0,0.0,0.0,0.0,0.0
S5_D7 hbo,0.0,0.0,0.0,0.0,0.0,0.0,0.0,0.0,0.0,0.0,0.0,0.0,0.0,0.0,0.0,0.0,0.0,0.0,0.0,0.0,0.0,0.0,0.0,0.0,0.0,0.0,0.0,0.0,0.0,0.0,0.0,0.0,0.0,0.0,0.0,0.0,0.0,0.0,0.0,0.0,0.0,0.0,0.0,0.0,0.0,0.0,0.0,0.0,0.0,0.0,0.0,0.0
S6_D4 hbo,0.03225806451612903,0.0,0.0,0.0,0.0,0.0,0.0,0.053763440860215055,0.0,0.0,0.0,0.053763440860215055,0.053763440860215055,0.053763440860215055,0.0,0.0,0.043010752688172046,0.053763440860215055,0.053763440860215055,0.0,0.0,0.0,0.0,0.053763440860215055,0.0,0.0,0.0,0.053763440860215055,0.0,0.0,0.0,0.0,0.0,0.0,0.0,0.0,0.0,0.0,0.0,0.053763440860215055,0.0,0.053763440860215055,0.021505376344086023,0.043010752688172046,0.053763440860215055,0.0,0.053763440860215055,0.053763440860215055,0.053763440860215055,0.053763440860215055,0.0,0.053763440860215055
S6_D5 hbo,0.032467532467532464,0.0,0.0,0.0,0.0,0.0,0.0,0.032467532467532464,0.0,0.0,0.0,0.03896103896103896,0.05844155844155844,0.06493506493506493,0.0,0.0,0.032467532467532464,0.06493506493506493,0.05844155844155844,0.0,0.0,0.0,0.0,0.045454545454545456,0.0,0.0,0.0,0.05844155844155844,0.0,0.0,0.0,0.0,0.0,0.0,0.0,0.0,0.0,0.0,0.0,0.05194805194805195,0.0,0.06493506493506493,0.012987012987012988,0.032467532467532464,0.06493506493506493,0.0,0.05194805194805195,0.07142857142857142,0.05844155844155844,0.045454545454545456,0.0,0.05844155844155844
S6_D6 hbo,0.032679738562091505,0.0,0.0,0.0,0.0,0.0,0.0,0.032679738562091505,0.0,0.0,0.0,0.0392156862745098,0.058823529411764705,0.06535947712418301,0.0,0.0,0.032679738562091505,0.06535947712418301,0.058823529411764705,0.0,0.0,0.0,0.0,0.0457516339869281,0.0,0.0,0.0,0.058823529411764705,0.0,0.0,0.0,0.0,0.0,0.0,0.0,0.0,0.0,0.0,0.0,0.05228758169934641,0.0,0.06535947712418301,0.013071895424836602,0.032679738562091505,0.06535947712418301,0.0,0.05228758169934641,0.06535947712418301,0.058823529411764705,0.0457516339869281,0.0,0.058823529411764705
S6_D8 hbo,0.0,0.0,0.0,0.0,0.0,0.0,0.0,0.0,0.0,0.0,0.0,0.0,0.0,0.0,0.0,0.0,0.0,0.0,0.0,0.0,0.0,0.0,0.0,0.0,0.0,0.0,0.0,0.0,0.0,0.0,0.0,0.0,0.0,0.0,0.0,0.0,0.0,0.0,0.0,0.0,0.0,0.0,0.0,0.0,0.0,0.0,0.0,0.0,0.0,0.0,0.0,0.0
S7_D5 hbo,0.0,0.0,0.0,0.0,0.0,0.0,0.0,0.0,0.0,0.0,0.0,0.14285714285714285,0.0,0.14285714285714285,0.0,0.0,0.0,0.0,0.0,0.0,0.5714285714285714,0.0,0.0,0.0,0.0,0.0,0.0,0.0,0.0,0.0,0.0,0.0,0.0,0.0,0.0,0.0,0.0,0.0,0.0,0.0,0.0,0.0,0.0,0.0,0.0,0.0,0.14285714285714285,0.0,0.0,0.0,0.0,0.0
S7_D7 hbo,0.0,0.0,0.0,0.0,0.0,0.0,0.0,0.0,0.0,0.0,0.0,0.0,0.0,0.0,0.0,0.0,0.0,0.0,0.0,0.0,0.0,0.0,0.0,0.0,0.0,0.0,0.0,0.0,0.0,0.0,0.0,0.0,0.0,0.0,0.0,0.0,0.0,0.0,0.0,0.0,0.0,0.0,0.0,0.0,0.0,0.0,0.0,0.0,0.0,0.0,0.0,0.0
S7_D8 hbo,0.0,0.0,0.0,0.0,0.0,0.0,0.0,0.0,0.0,0.0,0.0,0.0,0.0,0.0,0.0,0.0,0.0,0.0,0.0,0.0,0.0,0.0,0.0,0.0,0.0,0.0,0.0,0.0,0.0,0.0,0.0,0.0,0.0,0.0,0.0,0.0,0.0,0.0,0.0,0.0,0.0,0.0,0.0,0.0,0.0,0.0,0.0,0.0,0.0,0.0,0.0,0.0
S8_D6 hbo,0.036231884057971016,0.0,0.0,0.0,0.0,0.0,0.0,0.036231884057971016,0.0,0.0,0.0,0.043478260869565216,0.057971014492753624,0.057971014492753624,0.0,0.0,0.036231884057971016,0.057971014492753624,0.057971014492753624,0.0,0.0,0.0,0.0,0.050724637681159424,0.0,0.0,0.0,0.057971014492753624,0.0,0.0,0.0,0.0,0.0,0.0,0.0,0.0,0.0,0.0,0.0,0.057971014492753624,0.0,0.057971014492753624,0.014492753623188406,0.036231884057971016,0.057971014492753624,0.0,0.057971014492753624,0.057971014492753624,0.057971014492753624,0.050724637681159424,0.0,0.057971014492753624
S8_D8 hbo,0.0,0.0,0.0,0.0,0.0,0.0,0.0,0.0,0.0,0.0,0.0,0.0,0.0,0.0,0.0,0.0,0.0,0.0,0.0,0.0,0.0,0.0,0.0,0.0,0.0,0.0,0.0,0.0,0.0,0.0,0.0,0.0,0.0,0.0,0.0,0.0,0.0,0.0,0.0,0.0,0.0,0.0,0.0,0.0,0.0,0.0,0.0,0.0,0.0,0.0,0.0,0.0
S8_D15 hbo,0.0,0.0,0.0,0.0,0.0,0.0,0.0,0.0,0.0,0.0,0.0,0.0,0.0,0.0,0.0,0.0,0.0,0.0,0.0,0.0,0.0,0.0,0.0,0.0,0.0,0.0,0.0,0.0,0.0,0.0,0.0,0.0,0.0,0.0,0.0,0.0,0.0,0.0,0.0,0.0,0.0,0.0,0.0,0.0,0.0,0.0,0.0,0.0,0.0,0.0,0.0,0.0
S9_D2 hbo,0.0,0.0,0.0,0.0,0.0,0.0,0.0,0.0,0.0,0.0,0.0,0.0,0.0,0.0,0.0,0.0,0.0,0.0,0.0,0.0,0.0,0.0,0.0,0.0,0.0,0.0,0.0,0.0,0.0,0.0,0.0,0.0,0.0,0.0,0.0,0.0,0.0,0.0,0.0,0.0,0.0,0.0,0.0,0.0,0.0,0.0,0.0,0.0,0.0,0.0,0.0,0.0
S9_D9 hbo,0.032679738562091505,0.0,0.0,0.0,0.0,0.0,0.0,0.032679738562091505,0.0,0.0,0.0,0.0392156862745098,0.058823529411764705,0.06535947712418301,0.0,0.0,0.032679738562091505,0.06535947712418301,0.058823529411764705,0.0,0.0,0.0,0.0,0.0457516339869281,0.0,0.0,0.0,0.058823529411764705,0.0,0.0,0.0,0.0,0.0,0.0,0.0,0.0,0.0,0.0,0.0,0.05228758169934641,0.0,0.06535947712418301,0.013071895424836602,0.032679738562091505,0.06535947712418301,0.0,0.05228758169934641,0.06535947712418301,0.058823529411764705,0.0457516339869281,0.0,0.058823529411764705
S9_D11 hbo,0.0,0.0,0.0,0.0,0.0,0.0,0.0,0.0,0.0,0.0,0.0,0.0,0.0,0.0,0.0,0.0,0.0,0.0,0.0,0.0,0.0,0.0,0.0,0.0,0.0,0.0,0.0,0.0,0.0,0.0,0.0,0.0,0.0,0.0,0.0,0.0,0.0,0.0,0.0,0.0,0.0,0.0,0.0,0.0,0.0,0.0,0.0,0.0,0.0,0.0,0.0,0.0
S10_D9 hbo,0.0,0.0,0.0,0.0,0.0,0.0,0.0,0.0,0.0,0.11320754716981132,0.0,0.0,0.0,0.0,0.0,0.0,0.0,0.0,0.0,0.0,0.0,0.0,0.0,0.0,0.0,0.0,0.0,0.0,0.0,0.1320754716981132,0.1320754716981132,0.0,0.0,0.1320754716981132,0.1509433962264151,0.0,0.0,0.09433962264150944,0.03773584905660377,0.0,0.11320754716981132,0.0,0.0,0.0,0.0,0.0,0.0,0.0,0.0,0.0,0.09433962264150944,0.0
S10_D10 hbo,0.0,0.0,0.0,0.0,0.0,0.0,0.0,0.0,0.0,0.11320754716981132,0.0,0.0,0.0,0.0,0.0,0.0,0.0,0.0,0.0,0.0,0.0,0.0,0.0,0.0,0.0,0.0,0.0,0.0,0.0,0.1320754716981132,0.1320754716981132,0.0,0.0,0.1320754716981132,0.1509433962264151,0.0,0.0,0.09433962264150944,0.03773584905660377,0.0,0.11320754716981132,0.0,0.0,0.0,0.0,0.0,0.0,0.0,0.0,0.0,0.09433962264150944,0.0
S10_D12 hbo,0.0,0.0,0.0,0.0,0.0,0.0,0.0,0.0,0.0,0.0,0.0,0.0,0.0,0.0,0.0,0.0,0.0,0.0,0.0,0.0,0.0,0.0,0.0,0.0,0.0,0.0,0.0,0.0,0.0,0.0,0.0,0.0,0.0,0.0,0.0,0.0,0.0,0.0,0.0,0.0,0.0,0.0,0.0,0.0,0.0,0.0,0.0,0.0,0.0,0.0,0.0,0.0
S11_D9 hbo,0.0,0.0,0.0,0.0,0.0,0.0,0.0,0.0,0.0,0.0,0.0,0.0,0.0,0.0,0.0,0.0,0.0,0.0,0.0,0.0,0.0,0.0,0.0,0.0,0.0,0.0,0.0,0.0,0.0,0.0,0.0,0.0,0.0,0.0,0.0,0.0,0.0,0.0,0.0,0.0,0.0,0.0,0.0,0.0,0.0,0.0,0.0,0.0,0.0,0.0,0.0,0.0
S11_D11 hbo,0.0,0.0,0.0,0.0,0.0,0.0,0.0,0.0,0.0,0.1951219512195122,0.0,0.0,0.0,0.0,0.0,0.0,0.0,0.0,0.0,0.0,0.0,0.0,0.0,0.0,0.0,0.0,0.0,0.0,0.0,0.12195121951219512,0.12195121951219512,0.0,0.0,0.17073170731707318,0.14634146341463414,0.0,0.0,0.07317073170731707,0.0,0.0,0.0975609756097561,0.0,0.0,0.0,0.0,0.0,0.0,0.0,0.0,0.0,0.07317073170731707,0.0
S11_D12 hbo,0.0,0.0,0.0,0.0,0.0,0.0,0.0,0.0,0.0,0.12727272727272726,0.0,0.0,0.0,0.0,0.0,0.0,0.0,0.0,0.0,0.0,0.0,0.0,0.0,0.0,0.0,0.0,0.0,0.0,0.0,0.12727272727272726,0.12727272727272726,0.0,0.0,0.14545454545454545,0.14545454545454545,0.0,0.0,0.09090909090909091,0.03636363636363636,0.0,0.10909090909090909,0.0,0.0,0.0,0.0,0.0,0.0,0.0,0.0,0.0,0.09090909090909091,0.0
S11_D13 hbo,0.0,0.0,0.0,0.0,0.0,0.0,0.0,0.0,0.0,0.0,0.0,0.0,0.0,0.0,0.0,0.0,0.0,0.0,0.0,0.0,0.0,0.0,0.0,0.0,0.0,0.0,0.0,0.0,0.0,0.0,0.0,0.0,0.0,0.0,0.0,0.0,0.0,0.0,0.0,0.0,0.0,0.0,0.0,0.0,0.0,0.0,0.0,0.0,0.0,0.0,0.0,0.0
S12_D10 hbo,0.0,0.0,0.0,0.0,0.0,0.0,0.0,0.0,0.0,0.0,0.0,0.0,0.0,0.0,0.0,0.0,0.0,0.0,0.0,0.0,0.0,0.0,0.0,0.0,0.0,0.0,0.0,0.0,0.0,0.0,0.0,0.0,0.0,0.0,0.0,0.0,0.0,0.0,0.0,0.0,0.0,0.0,0.0,0.0,0.0,0.0,0.0,0.0,0.0,0.0,0.0,0.0
S12_D12 hbo,0.0,0.0,0.0,0.0,0.0,0.0,0.0,0.0,0.0,0.08,0.0,0.0,0.0,0.0,0.0,0.0,0.0,0.0,0.0,0.0,0.0,0.0,0.0,0.0,0.0,0.0,0.0,0.0,0.0,0.14,0.14,0.0,0.0,0.1,0.14,0.0,0.0,0.12,0.04,0.0,0.12,0.0,0.0,0.0,0.0,0.0,0.0,0.0,0.0,0.0,0.12,0.0
S12_D14 hbo,0.0,0.0,0.0,0.0,0.0,0.0,0.0,0.0,0.0,0.0625,0.0,0.0,0.0,0.0,0.0,0.0,0.0,0.0,0.0,0.0,0.0,0.0,0.0,0.0,0.0,0.0,0.0,0.0,0.0,0.125,0.125,0.0,0.0,0.125,0.125,0.0,0.0,0.125,0.0625,0.0,0.125,0.0,0.0,0.0,0.0,0.0,0.0,0.0,0.0,0.0,0.125,0.0
S13_D6 hbo,0.033783783783783786,0.0,0.0,0.0,0.0,0.0,0.0,0.033783783783783786,0.0,0.0,0.0,0.04054054054054054,0.060810810810810814,0.060810810810810814,0.0,0.0,0.033783783783783786,0.060810810810810814,0.060810810810810814,0.0,0.0,0.0,0.0,0.0472972972972973,0.0,0.0,0.0,0.060810810810810814,0.0,0.0,0.0,0.0,0.0,0.0,0.0,0.0,0.0,0.0,0.0,0.05405405405405406,0.0,0.060810810810810814,0.013513513513513514,0.033783783783783786,0.060810810810810814,0.0,0.05405405405405406,0.060810810810810814,0.060810810810810814,0.0472972972972973,0.0,0.060810810810810814
S13_D11 hbo,0.0,0.0,0.0,0.0,0.0,0.0,0.0,0.0,0.0,0.11627906976744186,0.0,0.0,0.0,0.0,0.0,0.0,0.0,0.0,0.0,0.0,0.0,0.0,0.0,0.0,0.0,0.0,0.0,0.0,0.0,0.13953488372093023,0.13953488372093023,0.0,0.0,0.13953488372093023,0.13953488372093023,0.0,0.0,0.09302325581395349,0.023255813953488372,0.0,0.11627906976744186,0.0,0.0,0.0,0.0,0.0,0.0,0.0,0.0,0.0,0.09302325581395349,0.0
S13_D13 hbo,0.02976190476190476,0.0,0.0,0.0,0.0,0.0,0.0,0.02976190476190476,0.0,0.0,0.0,0.03571428571428571,0.05952380952380952,0.06547619047619048,0.0,0.0,0.02976190476190476,0.06547619047619048,0.05952380952380952,0.0,0.0,0.0,0.0,0.047619047619047616,0.0,0.0,0.0,0.05952380952380952,0.0,0.0,0.0,0.0,0.0,0.0,0.0,0.0,0.0,0.0,0.0,0.05357142857142857,0.0,0.06547619047619048,0.011904761904761904,0.02976190476190476,0.06547619047619048,0.0,0.05357142857142857,0.07142857142857142,0.05952380952380952,0.047619047619047616,0.0,0.05952380952380952
S13_D15 hbo,0.02631578947368421,0.0,0.0,0.0,0.0,0.0,0.0,0.05263157894736842,0.0,0.0,0.0,0.05263157894736842,0.05263157894736842,0.05263157894736842,0.0,0.0,0.05263157894736842,0.05263157894736842,0.05263157894736842,0.0,0.0,0.0,0.0,0.05263157894736842,0.0,0.0,0.0,0.05263157894736842,0.0,0.0,0.0,0.0,0.0,0.0,0.0,0.0,0.0,0.0,0.0,0.05263157894736842,0.0,0.05263157894736842,0.02631578947368421,0.05263157894736842,0.05263157894736842,0.0,0.05263157894736842,0.05263157894736842,0.05263157894736842,0.05263157894736842,0.0,0.05263157894736842
S14_D12 hbo,0.03225806451612903,0.0,0.0,0.0,0.0,0.0,0.0,0.053763440860215055,0.0,0.0,0.0,0.053763440860215055,0.053763440860215055,0.053763440860215055,0.0,0.0,0.043010752688172046,0.053763440860215055,0.053763440860215055,0.0,0.0,0.0,0.0,0.053763440860215055,0.0,0.0,0.0,0.053763440860215055,0.0,0.0,0.0,0.0,0.0,0.0,0.0,0.0,0.0,0.0,0.0,0.053763440860215055,0.0,0.053763440860215055,0.021505376344086023,0.043010752688172046,0.053763440860215055,0.0,0.053763440860215055,0.053763440860215055,0.053763440860215055,0.053763440860215055,0.0,0.053763440860215055
S14_D13 hbo,0.02976190476190476,0.0,0.0,0.0,0.0,0.0,0.0,0.02976190476190476,0.0,0.0,0.0,0.03571428571428571,0.05952380952380952,0.06547619047619048,0.0,0.0,0.02976190476190476,0.06547619047619048,0.05952380952380952,0.0,0.0,0.0,0.0,0.047619047619047616,0.0,0.0,0.0,0.05952380952380952,0.0,0.0,0.0,0.0,0.0,0.0,0.0,0.0,0.0,0.0,0.0,0.05357142857142857,0.0,0.06547619047619048,0.011904761904761904,0.02976190476190476,0.06547619047619048,0.0,0.05357142857142857,0.07142857142857142,0.05952380952380952,0.047619047619047616,0.0,0.05952380952380952
S14_D14 hbo,0.0,0.0,0.0,0.0,0.0,0.0,0.0,0.0,0.0,0.0,0.0,0.0,0.0,0.0,0.0,0.0,0.0,0.0,0.0,0.0,0.0,0.0,0.0,0.0,0.0,0.0,0.0,0.0,0.0,0.0,0.0,0.0,0.0,0.0,0.0,0.0,0.0,0.0,0.0,0.0,0.0,0.0,0.0,0.0,0.0,0.0,0.0,0.0,0.0,0.0,0.0,0.0
S14_D16 hbo,0.029239766081871343,0.0,0.0,0.0,0.0,0.0,0.0,0.029239766081871343,0.0,0.0,0.0,0.03508771929824561,0.05847953216374269,0.07602339181286549,0.0,0.0,0.029239766081871343,0.05847953216374269,0.05847953216374269,0.0,0.017543859649122806,0.0,0.0,0.04678362573099415,0.0,0.0,0.0,0.05847953216374269,0.0,0.0,0.0,0.0,0.0,0.0,0.0,0.0,0.0,0.0,0.0,0.05263157894736842,0.0,0.05847953216374269,0.011695906432748537,0.029239766081871343,0.05847953216374269,0.0,0.07017543859649122,0.05847953216374269,0.05847953216374269,0.04678362573099415,0.0,0.05847953216374269
S15_D13 hbo,0.02976190476190476,0.0,0.0,0.0,0.0,0.0,0.0,0.02976190476190476,0.0,0.0,0.0,0.03571428571428571,0.05952380952380952,0.06547619047619048,0.0,0.0,0.02976190476190476,0.06547619047619048,0.05952380952380952,0.0,0.0,0.0,0.0,0.047619047619047616,0.0,0.0,0.0,0.05952380952380952,0.0,0.0,0.0,0.0,0.0,0.0,0.0,0.0,0.0,0.0,0.0,0.05357142857142857,0.0,0.06547619047619048,0.011904761904761904,0.02976190476190476,0.06547619047619048,0.0,0.05357142857142857,0.07142857142857142,0.05952380952380952,0.047619047619047616,0.0,0.05952380952380952
S15_D15 hbo,0.029940119760479042,0.0,0.0,0.0,0.0,0.0,0.0,0.029940119760479042,0.0,0.0,0.0,0.03592814371257485,0.059880239520958084,0.0658682634730539,0.0,0.0,0.029940119760479042,0.0658682634730539,0.059880239520958084,0.0,0.0,0.0,0.0,0.04790419161676647,0.0,0.0,0.0,0.059880239520958084,0.0,0.0,0.0,0.0,0.0,0.0,0.0,0.0,0.0,0.0,0.0,0.05389221556886228,0.0,0.0658682634730539,0.011976047904191617,0.029940119760479042,0.0658682634730539,0.0,0.05389221556886228,0.0658682634730539,0.059880239520958084,0.04790419161676647,0.0,0.059880239520958084
S15_D16 hbo,0.03289473684210526,0.0,0.0,0.0,0.0,0.0,0.0,0.03289473684210526,0.0,0.0,0.0,0.039473684210526314,0.05921052631578947,0.05921052631578947,0.0,0.0,0.03289473684210526,0.05921052631578947,0.05921052631578947,0.0,0.0,0.0,0.0,0.05263157894736842,0.0,0.0,0.0,0.05921052631578947,0.0,0.0,0.0,0.0,0.0,0.0,0.0,0.0,0.0,0.0,0.0,0.05921052631578947,0.0,0.05921052631578947,0.013157894736842105,0.03289473684210526,0.05921052631578947,0.0,0.05921052631578947,0.05921052631578947,0.05921052631578947,0.05263157894736842,0.0,0.05921052631578947
S16_D14 hbo,0.0,0.0,0.0,0.0,0.0,0.0,0.0,0.0,0.0,0.08888888888888889,0.0,0.0,0.0,0.0,0.0,0.0,0.0,0.0,0.0,0.0,0.0,0.0,0.0,0.0,0.0,0.0,0.0,0.0,0.0,0.13333333333333333,0.13333333333333333,0.0,0.0,0.1111111111111111,0.13333333333333333,0.0,0.0,0.1111111111111111,0.044444444444444446,0.0,0.13333333333333333,0.0,0.0,0.0,0.0,0.0,0.0,0.0,0.0,0.0,0.1111111111111111,0.0
S16_D16 hbo,0.029940119760479042,0.0,0.0,0.0,0.0,0.0,0.0,0.029940119760479042,0.0,0.0,0.0,0.03592814371257485,0.059880239520958084,0.0658682634730539,0.0,0.0,0.029940119760479042,0.0658682634730539,0.059880239520958084,0.0,0.0,0.0,0.0,0.04790419161676647,0.0,0.0,0.0,0.059880239520958084,0.0,0.0,0.0,0.0,0.0,0.0,0.0,0.0,0.0,0.0,0.0,0.05389221556886228,0.0,0.0658682634730539,0.011976047904191617,0.029940119760479042,0.0658682634730539,0.0,0.05389221556886228,0.0658682634730539,0.059880239520958084,0.04790419161676647,0.0,0.059880239520958084
