,S1_D1 hbo,S1_D3 hbo,S2_D1 hbo,S2_D2 hbo,S2_D4 hbo,S3_D1 hbo,S3_D3 hbo,S3_D4 hbo,S3_D5 hbo,S4_D2 hbo,S4_D4 hbo,S4_D6 hbo,S4_D11 hbo,S5_D3 hbo,S5_D5 hbo,S5_D7 hbo,S6_D4 hbo,S6_D5 hbo,S6_D6 hbo,S6_D8 hbo,S7_D5 hbo,S7_D7 hbo,S7_D8 hbo,S8_D6 hbo,S8_D8 hbo,S8_D15 hbo,S9_D2 hbo,S9_D9 hbo,S9_D11 hbo,S10_D9 hbo,S10_D10 hbo,S10_D12 hbo,S11_D9 hbo,S11_D11 hbo,S11_D12 hbo,S11_D13 hbo,S12_D10 hbo,S12_D12 hbo,S12_D14 hbo,S13_D6 hbo,S13_D11 hbo,S13_D13 hbo,S13_D15 hbo,S14_D12 hbo,S14_D13 hbo,S14_D14 hbo,S14_D16 hbo,S15_D13 hbo,S15_D15 hbo,S15_D16 hbo,S16_D14 hbo,S16_D16 hbo
S1_D1 hbo,0.03592814371257485,0.0,0.0,0.029940119760479042,0.017964071856287425,0.0,0.0,0.027944111776447105,0.015968063872255488,0.031936127744510975,0.0,0.031936127744510975,0.015968063872255488,0.0,0.017964071856287425,0.0,0.0,0.027944111776447105,0.0,0.029940119760479042,0.029940119760479042,0.033932135728542916,0.03792415169660679,0.033932135728542916,0.033932135728542916,0.031936127744510975,0.015968063872255488,0.0,0.0,0.029940119760479042,0.01996007984031936,0.027944111776447105,0.027944111776447105,0.023952095808383235,0.02594810379241517,0.029940119760479042,0.015968063872255488,0.011976047904191617,0.0,0.023952095808383235,0.027944111776447105,0.031936127744510975,0.01996007984031936,0.023952095808383235,0.0,0.027944111776447105,0.027944111776447105,0.0,0.029940119760479042,0.02594810379241517,0.02594810379241517,0.01996007984031936
S1_D3 hbo,0.0,0.0,0.0,0.0,0.0,0.0,0.0,0.0,0.0,0.0,0.0,0.0,0.0,0.0,0.0,0.0,0.0,0.0,0.0,0.0,0.0,0.0,0.0,0.0,0.0,0.0,0.0,0.0,0.0,0.0,0.0,0.0,0.0,0.0,0.0,0.0,0.0,0.0,0.0,0.0,0.0,0.0,0.0,0.0,0.0,0.0,0.0,0.0,0.0,0.0,0.0,0.0
S2_D1 hbo,0.0,0.0,0.0,0.0,0.0,0.0,0.0,0.0,0.0,0.0,0.0,0.0,0.0,0.0,0.0,0.0,0.0,0.0,0.0,0.0,0.0,0.0,0.0,0.0,0.0,0.0,0.0,0.0,0.0,0.0,0.0,0.0,0.0,0.0,0.0,0.0,0.0,0.0,0.0,0.0,0.0,0.0,0.0,0.0,0.0,0.0,0.0,0.0,0.0,0.0,0.0,0.0
S2_D2 hbo,0.032119914346895075,0.0,0.0,0.029978586723768737,0.019271948608137045,0.0,0.0,0.029978586723768737,0.017130620985010708,0.032119914346895075,0.0,0.032119914346895075,0.017130620985010708,0.0,0.017130620985010708,0.0,0.0,0.027837259100642397,0.0,0.029978586723768737,0.029978586723768737,0.032119914346895075,0.032119914346895075,0.032119914346895075,0.032119914346895075,0.032119914346895075,0.017130620985010708,0.0,0.0,0.029978586723768737,0.019271948608137045,0.027837259100642397,0.027837259100642397,0.023554603854389723,0.027837259100642397,0.029978586723768737,0.014989293361884369,0.01284796573875803,0.0,0.023554603854389723,0.027837259100642397,0.032119914346895075,0.021413276231263382,0.02569593147751606,0.0,0.027837259100642397,0.027837259100642397,0.0,0.032119914346895075,0.027837259100642397,0.02569593147751606,0.021413276231263382
S2_D4 hbo,0.028662420382165606,0.0,0.0,0.028662420382165606,0.025477707006369428,0.0,0.0,0.028662420382165606,0.01910828025477707,0.028662420382165606,0.0,0.028662420382165606,0.01910828025477707,0.0,0.01592356687898089,0.0,0.0,0.028662420382165606,0.0,0.028662420382165606,0.028662420382165606,0.028662420382165606,0.028662420382165606,0.028662420382165606,0.028662420382165606,0.028662420382165606,0.022292993630573247,0.0,0.0,0.028662420382165606,0.01910828025477707,0.028662420382165606,0.028662420382165606,0.025477707006369428,0.028662420382165606,0.028662420382165606,0.012738853503184714,0.01910828025477707,0.0,0.025477707006369428,0.028662420382165606,0.028662420382165606,0.028662420382165606,0.028662420382165606,0.0,0.028662420382165606,0.028662420382165606,0.0,0.028662420382165606,0.028662420382165606,0.028662420382165606,0.022292993630573247
S3_D1 hbo,0.0,0.0,0.0,0.0,0.0,0.0,0.0,0.0,0.0,0.0,0.0,0.0,0.0,0.0,0.0,0.0,0.0,0.0,0.0,0.0,0.0,0.0,0.0,0.0,0.0,0.0,0.0,0.0,0.0,0.0,0.0,0.0,0.0,0.0,0.0,0.0,0.0,0.0,0.0,0.0,0.0,0.0,0.0,0.0,0.0,0.0,0.0,0.0,0.0,0.0,0.0,0.0
S3_D3 hbo,0.0,0.0,0.0,0.0,0.0,0.0,0.0,0.0,0.0,0.0,0.0,0.0,0.0,0.0,0.0,0.0,0.0,0.0,0.0,0.0,0.0,0.0,0.0,0.0,0.0,0.0,0.0,0.0,0.0,0.0,0.0,0.0,0.0,0.0,0.0,0.0,0.0,0.0,0.0,0.0,0.0,0.0,0.0,0.0,0.0,0.0,0.0,0.0,0.0,0.0,0.0,0.0
S3_D4 hbo,0.032036613272311214,0.0,0.0,0.029748283752860413,0.020594965675057208,0.0,0.0,0.029748283752860413,0.018306636155606407,0.032036613272311214,0.0,0.032036613272311214,0.018306636155606407,0.0,0.016018306636155607,0.0,0.0,0.02745995423340961,0.0,0.029748283752860413,0.029748283752860413,0.032036613272311214,0.032036613272311214,0.032036613272311214,0.032036613272311214,0.032036613272311214,0.018306636155606407,0.0,0.0,0.029748283752860413,0.018306636155606407,0.02745995423340961,0.02745995423340961,0.02288329519450801,0.02745995423340961,0.029748283752860413,0.013729977116704805,0.013729977116704805,0.0,0.02288329519450801,0.02745995423340961,0.032036613272311214,0.02288329519450801,0.02745995423340961,0.0,0.02745995423340961,0.02745995423340961,0.0,0.032036613272311214,0.029748283752860413,0.02517162471395881,0.020594965675057208
S3_D5 hbo,0.027210884353741496,0.0,0.0,0.027210884353741496,0.027210884353741496,0.0,0.0,0.027210884353741496,0.023809523809523808,0.027210884353741496,0.0,0.027210884353741496,0.023809523809523808,0.0,0.02040816326530612,0.0,0.0,0.027210884353741496,0.0,0.027210884353741496,0.027210884353741496,0.027210884353741496,0.027210884353741496,0.027210884353741496,0.027210884353741496,0.027210884353741496,0.027210884353741496,0.0,0.0,0.027210884353741496,0.023809523809523808,0.027210884353741496,0.027210884353741496,0.027210884353741496,0.027210884353741496,0.027210884353741496,0.017006802721088437,0.02040816326530612,0.0,0.027210884353741496,0.027210884353741496,0.027210884353741496,0.027210884353741496,0.027210884353741496,0.0,0.027210884353741496,0.027210884353741496,0.0,0.027210884353741496,0.027210884353741496,0.027210884353741496,0.027210884353741496
S4_D2 hbo,0.03474903474903475,0.0,0.0,0.02895752895752896,0.017374517374517374,0.0,0.0,0.02702702702702703,0.015444015444015444,0.032818532818532815,0.0,0.032818532818532815,0.015444015444015444,0.0,0.017374517374517374,0.0,0.0,0.02895752895752896,0.0,0.03088803088803089,0.03088803088803089,0.03474903474903475,0.032818532818532815,0.03474903474903475,0.03474903474903475,0.032818532818532815,0.015444015444015444,0.0,0.0,0.03088803088803089,0.019305019305019305,0.02895752895752896,0.02895752895752896,0.025096525096525095,0.025096525096525095,0.03088803088803089,0.017374517374517374,0.011583011583011582,0.0,0.025096525096525095,0.02895752895752896,0.032818532818532815,0.019305019305019305,0.023166023166023165,0.0,0.02702702702702703,0.02702702702702703,0.0,0.02895752895752896,0.025096525096525095,0.02702702702702703,0.019305019305019305
S4_D4 hbo,0.0,0.0,0.0,0.0,0.0,0.0,0.0,0.0,0.0,0.0,0.0,0.0,0.0,0.0,0.0,0.0,0.0,0.0,0.0,0.0,0.0,0.0,0.0,0.0,0.0,0.0,0.0,0.0,0.0,0.0,0.0,0.0,0.0,0.0,0.0,0.0,0.0,0.0,0.0,0.0,0.0,0.0,0.0,0.0,0.0,0.0,0.0,0.0,0.0,0.0,0.0,0.0
S4_D6 hbo,0.03474903474903475,0.0,0.0,0.02895752895752896,0.017374517374517374,0.0,0.0,0.02702702702702703,0.015444015444015444,0.032818532818532815,0.0,0.032818532818532815,0.015444015444015444,0.0,0.017374517374517374,0.0,0.0,0.02895752895752896,0.0,0.03088803088803089,0.03088803088803089,0.03474903474903475,0.032818532818532815,0.03474903474903475,0.03474903474903475,0.032818532818532815,0.015444015444015444,0.0,0.0,0.03088803088803089,0.019305019305019305,0.02895752895752896,0.02895752895752896,0.025096525096525095,0.025096525096525095,0.03088803088803089,0.017374517374517374,0.011583011583011582,0.0,0.025096525096525095,0.02895752895752896,0.032818532818532815,0.019305019305019305,0.023166023166023165,0.0,0.02702702702702703,0.02702702702702703,0.0,0.02895752895752896,0.025096525096525095,0.02702702702702703,0.019305019305019305
S4_D11 hbo,0.027210884353741496,0.0,0.0,0.027210884353741496,0.027210884353741496,0.0,0.0,0.027210884353741496,0.023809523809523808,0.027210884353741496,0.0,0.027210884353741496,0.023809523809523808,0.0,0.02040816326530612,0.0,0.0,0.027210884353741496,0.0,0.027210884353741496,0.027210884353741496,0.027210884353741496,0.027210884353741496,0.027210884353741496,0.027210884353741496,0.027210884353741496,0.027210884353741496,0.0,0.0,0.027210884353741496,0.023809523809523808,0.027210884353741496,0.027210884353741496,0.027210884353741496,0.027210884353741496,0.027210884353741496,0.017006802721088437,0.02040816326530612,0.0,0.027210884353741496,0.027210884353741496,0.027210884353741496,0.027210884353741496,0.027210884353741496,0.0,0.027210884353741496,0.027210884353741496,0.0,0.027210884353741496,0.027210884353741496,0.027210884353741496,0.027210884353741496
S5_D3 hbo,0.0,0.0,0.0,0.0,0.0,0.0,0.0,0.0,0.0,0.0,0.0,0.0,0.0,0.0,0.0,0.0,0.0,0.0,0.0,0.0,0.0,0.0,0.0,0.0,0.0,0.0,0.0,0.0,0.0,0.0,0.0,0.0,0.0,0.0,0.0,0.0,0.0,0.0,0.0,0.0,0.0,0.0,0.0,0.0,0.0,0.0,0.0,0.0,0.0,0.0,0.0,0.0
S5_D5 hbo,0.027777777777777776,0.0,0.0,0.027777777777777776,0.021604938271604937,0.0,0.0,0.027777777777777776,0.024691358024691357,0.027777777777777776,0.0,0.027777777777777776,0.024691358024691357,0.0,0.024691358024691357,0.0,0.0,0.027777777777777776,0.0,0.027777777777777776,0.027777777777777776,0.027777777777777776,0.027777777777777776,0.027777777777777776,0.027777777777777776,0.027777777777777776,0.021604938271604937,0.0,0.0,0.027777777777777776,0.027777777777777776,0.027777777777777776,0.027777777777777776,0.027777777777777776,0.027777777777777776,0.027777777777777776,0.021604938271604937,0.018518518518518517,0.0,0.027777777777777776,0.027777777777777776,0.027777777777777776,0.021604938271604937,0.021604938271604937,0.0,0.027777777777777776,0.027777777777777776,0.0,0.027777777777777776,0.021604938271604937,0.027777777777777776,0.027777777777777776
S5_D7 hbo,0.0,0.0,0.0,0.0,0.0,0.0,0.0,0.0,0.0,0.0,0.0,0.0,0.0,0.0,0.0,0.0,0.0,0.0,0.0,0.0,0.0,0.0,0.0,0.0,0.0,0.0,0.0,0.0,0.0,0.0,0.0,0.0,0.0,0.0,0.0,0.0,0.0,0.0,0.0,0.0,0.0,0.0,0.0,0.0,0.0,0.0,0.0,0.0,0.0,0.0,0.0,0.0
S6_D4 hbo,0.0,0.0,0.0,0.0,0.0,0.0,0.0,0.0,0.0,0.0,0.0,0.0,0.0,0.0,0.0,0.0,0.0,0.0,0.0,0.0,0.0,0.0,0.0,0.0,0.0,0.0,0.0,0.0,0.0,0.0,0.0,0.0,0.0,0.0,0.0,0.0,0.0,0.0,0.0,0.0,0.0,0.0,0.0,0.0,0.0,0.0,0.0,0.0,0.0,0.0,0.0,0.0
S6_D5 hbo,0.03112033195020747,0.0,0.0,0.03112033195020747,0.01867219917012448,0.0,0.0,0.029045643153526972,0.016597510373443983,0.03112033195020747,0.0,0.03112033195020747,0.016597510373443983,0.0,0.01867219917012448,0.0,0.0,0.029045643153526972,0.0,0.03112033195020747,0.03112033195020747,0.03112033195020747,0.03112033195020747,0.03112033195020747,0.03112033195020747,0.03112033195020747,0.016597510373443983,0.0,0.0,0.03112033195020747,0.02074688796680498,0.029045643153526972,0.029045643153526972,0.024896265560165973,0.026970954356846474,0.03112033195020747,0.016597510373443983,0.012448132780082987,0.0,0.024896265560165973,0.029045643153526972,0.03112033195020747,0.02074688796680498,0.024896265560165973,0.0,0.029045643153526972,0.029045643153526972,0.0,0.029045643153526972,0.024896265560165973,0.026970954356846474,0.02074688796680498
S6_D6 hbo,0.0,0.0,0.0,0.0,0.0,0.0,0.0,0.0,0.0,0.0,0.0,0.0,0.0,0.0,0.0,0.0,0.0,0.0,0.0,0.0,0.0,0.0,0.0,0.0,0.0,0.0,0.0,0.0,0.0,0.0,0.0,0.0,0.0,0.0,0.0,0.0,0.0,0.0,0.0,0.0,0.0,0.0,0.0,0.0,0.0,0.0,0.0,0.0,0.0,0.0,0.0,0.0
S6_D8 hbo,0.03177570093457944,0.0,0.0,0.028037383177570093,0.016822429906542057,0.0,0.0,0.026168224299065422,0.014953271028037384,0.03364485981308411,0.0,0.03364485981308411,0.014953271028037384,0.0,0.016822429906542057,0.0,0.0,0.028037383177570093,0.0,0.03364485981308411,0.03177570093457944,0.03551401869158879,0.029906542056074768,0.03551401869158879,0.03364485981308411,0.03551401869158879,0.014953271028037384,0.0,0.0,0.03177570093457944,0.018691588785046728,0.028037383177570093,0.028037383177570093,0.026168224299065422,0.024299065420560748,0.03364485981308411,0.020560747663551402,0.011214953271028037,0.0,0.024299065420560748,0.029906542056074768,0.03551401869158879,0.018691588785046728,0.022429906542056073,0.0,0.026168224299065422,0.026168224299065422,0.0,0.028037383177570093,0.024299065420560748,0.028037383177570093,0.018691588785046728
S7_D5 hbo,0.03313840155945419,0.0,0.0,0.029239766081871343,0.017543859649122806,0.0,0.0,0.02729044834307992,0.015594541910331383,0.03313840155945419,0.0,0.03313840155945419,0.015594541910331383,0.0,0.017543859649122806,0.0,0.0,0.029239766081871343,0.0,0.031189083820662766,0.031189083820662766,0.03313840155945419,0.031189083820662766,0.03313840155945419,0.03313840155945419,0.03313840155945419,0.015594541910331383,0.0,0.0,0.031189083820662766,0.01949317738791423,0.029239766081871343,0.029239766081871343,0.025341130604288498,0.025341130604288498,0.031189083820662766,0.017543859649122806,0.011695906432748537,0.0,0.025341130604288498,0.029239766081871343,0.03313840155945419,0.01949317738791423,0.023391812865497075,0.0,0.02729044834307992,0.02729044834307992,0.0,0.029239766081871343,0.025341130604288498,0.02729044834307992,0.01949317738791423
S7_D7 hbo,0.03551401869158879,0.0,0.0,0.028037383177570093,0.016822429906542057,0.0,0.0,0.026168224299065422,0.014953271028037384,0.03364485981308411,0.0,0.03364485981308411,0.014953271028037384,0.0,0.016822429906542057,0.0,0.0,0.028037383177570093,0.0,0.03177570093457944,0.03177570093457944,0.03551401869158879,0.03364485981308411,0.03551401869158879,0.03551401869158879,0.03364485981308411,0.014953271028037384,0.0,0.0,0.03177570093457944,0.018691588785046728,0.028037383177570093,0.028037383177570093,0.026168224299065422,0.024299065420560748,0.03177570093457944,0.018691588785046728,0.011214953271028037,0.0,0.024299065420560748,0.029906542056074768,0.03364485981308411,0.018691588785046728,0.022429906542056073,0.0,0.026168224299065422,0.026168224299065422,0.0,0.028037383177570093,0.024299065420560748,0.028037383177570093,0.018691588785046728
S7_D8 hbo,0.03571428571428571,0.0,0.0,0.029411764705882353,0.018907563025210083,0.0,0.0,0.029411764705882353,0.01680672268907563,0.031512605042016806,0.0,0.031512605042016806,0.01680672268907563,0.0,0.01680672268907563,0.0,0.0,0.0273109243697479,0.0,0.029411764705882353,0.029411764705882353,0.03361344537815126,0.03991596638655462,0.03361344537815126,0.03361344537815126,0.031512605042016806,0.01680672268907563,0.0,0.0,0.029411764705882353,0.018907563025210083,0.0273109243697479,0.0273109243697479,0.023109243697478993,0.0273109243697479,0.029411764705882353,0.014705882352941176,0.012605042016806723,0.0,0.023109243697478993,0.0273109243697479,0.031512605042016806,0.02100840336134454,0.025210084033613446,0.0,0.0273109243697479,0.0273109243697479,0.0,0.031512605042016806,0.0273109243697479,0.025210084033613446,0.02100840336134454
S8_D6 hbo,0.03486238532110092,0.0,0.0,0.027522935779816515,0.01651376146788991,0.0,0.0,0.025688073394495414,0.014678899082568808,0.03302752293577982,0.0,0.03302752293577982,0.014678899082568808,0.0,0.01651376146788991,0.0,0.0,0.027522935779816515,0.0,0.03486238532110092,0.031192660550458717,0.03669724770642202,0.03302752293577982,0.03853211009174312,0.03486238532110092,0.03486238532110092,0.014678899082568808,0.0,0.0,0.031192660550458717,0.01834862385321101,0.027522935779816515,0.027522935779816515,0.025688073394495414,0.023853211009174313,0.03302752293577982,0.022018348623853212,0.011009174311926606,0.0,0.023853211009174313,0.029357798165137616,0.03486238532110092,0.01834862385321101,0.022018348623853212,0.0,0.025688073394495414,0.025688073394495414,0.0,0.027522935779816515,0.023853211009174313,0.027522935779816515,0.01834862385321101
S8_D8 hbo,0.03653846153846154,0.0,0.0,0.028846153846153848,0.01730769230769231,0.0,0.0,0.026923076923076925,0.015384615384615385,0.032692307692307694,0.0,0.032692307692307694,0.015384615384615385,0.0,0.01730769230769231,0.0,0.0,0.028846153846153848,0.0,0.03076923076923077,0.03076923076923077,0.03461538461538462,0.03461538461538462,0.03461538461538462,0.03461538461538462,0.032692307692307694,0.015384615384615385,0.0,0.0,0.03076923076923077,0.019230769230769232,0.028846153846153848,0.028846153846153848,0.025,0.025,0.03076923076923077,0.01730769230769231,0.011538461538461539,0.0,0.025,0.028846153846153848,0.032692307692307694,0.019230769230769232,0.023076923076923078,0.0,0.026923076923076925,0.026923076923076925,0.0,0.028846153846153848,0.025,0.026923076923076925,0.019230769230769232
S8_D15 hbo,0.03377110694183865,0.0,0.0,0.028142589118198873,0.016885553470919325,0.0,0.0,0.02626641651031895,0.0150093808630394,0.03377110694183865,0.0,0.03377110694183865,0.0150093808630394,0.0,0.016885553470919325,0.0,0.0,0.028142589118198873,0.0,0.03189493433395872,0.03189493433395872,0.03564727954971857,0.03189493433395872,0.03564727954971857,0.03564727954971857,0.03377110694183865,0.0150093808630394,0.0,0.0,0.03189493433395872,0.01876172607879925,0.028142589118198873,0.028142589118198873,0.02626641651031895,0.024390243902439025,0.03189493433395872,0.01876172607879925,0.01125703564727955,0.0,0.024390243902439025,0.0300187617260788,0.03377110694183865,0.01876172607879925,0.0225140712945591,0.0,0.02626641651031895,0.02626641651031895,0.0,0.028142589118198873,0.024390243902439025,0.028142589118198873,0.01876172607879925
S9_D2 hbo,0.027874564459930314,0.0,0.0,0.027874564459930314,0.027874564459930314,0.0,0.0,0.027874564459930314,0.020905923344947737,0.027874564459930314,0.0,0.027874564459930314,0.020905923344947737,0.0,0.017421602787456445,0.0,0.0,0.027874564459930314,0.0,0.027874564459930314,0.027874564459930314,0.027874564459930314,0.027874564459930314,0.027874564459930314,0.027874564459930314,0.027874564459930314,0.024390243902439025,0.0,0.0,0.027874564459930314,0.020905923344947737,0.027874564459930314,0.027874564459930314,0.027874564459930314,0.027874564459930314,0.027874564459930314,0.013937282229965157,0.020905923344947737,0.0,0.027874564459930314,0.027874564459930314,0.027874564459930314,0.027874564459930314,0.027874564459930314,0.0,0.027874564459930314,0.027874564459930314,0.0,0.027874564459930314,0.027874564459930314,0.027874564459930314,0.024390243902439025
S9_D9 hbo,0.0,0.0,0.0,0.0,0.0,0.0,0.0,0.0,0.0,0.0,0.0,0.0,0.0,0.0,0.0,0.0,0.0,0.0,0.0,0.0,0.0,0.0,0.0,0.0,0.0,0.0,0.0,0.0,0.0,0.0,0.0,0.0,0.0,0.0,0.0,0.0,0.0,0.0,0.0,0.0,0.0,0.0,0.0,0.0,0.0,0.0,0.0,0.0,0.0,0.0,0.0,0.0
S9_D11 hbo,0.0,0.0,0.0,0.0,0.0,0.0,0.0,0.0,0.0,0.0,0.0,0.0,0.0,0.0,0.0,0.0,0.0,0.0,0.0,0.0,0.0,0.0,0.0,0.0,0.0,0.0,0.0,0.0,0.0,0.0,0.0,0.0,0.0,0.0,0.0,0.0,0.0,0.0,0.0,0.0,0.0,0.0,0.0,0.0,0.0,0.0,0.0,0.0,0.0,0.0,0.0,0.0
S10_D9 hbo,0.03313840155945419,0.0,0.0,0.029239766081871343,0.017543859649122806,0.0,0.0,0.02729044834307992,0.015594541910331383,0.03313840155945419,0.0,0.03313840155945419,0.015594541910331383,0.0,0.017543859649122806,0.0,0.0,0.029239766081871343,0.0,0.031189083820662766,0.031189083820662766,0.03313840155945419,0.031189083820662766,0.03313840155945419,0.03313840155945419,0.03313840155945419,0.015594541910331383,0.0,0.0,0.031189083820662766,0.01949317738791423,0.029239766081871343,0.029239766081871343,0.025341130604288498,0.025341130604288498,0.031189083820662766,0.017543859649122806,0.011695906432748537,0.0,0.025341130604288498,0.029239766081871343,0.03313840155945419,0.01949317738791423,0.023391812865497075,0.0,0.02729044834307992,0.02729044834307992,0.0,0.029239766081871343,0.025341130604288498,0.02729044834307992,0.01949317738791423
S10_D10 hbo,0.028089887640449437,0.0,0.0,0.028089887640449437,0.02247191011235955,0.0,0.0,0.028089887640449437,0.02247191011235955,0.028089887640449437,0.0,0.028089887640449437,0.02247191011235955,0.0,0.02247191011235955,0.0,0.0,0.028089887640449437,0.0,0.028089887640449437,0.028089887640449437,0.028089887640449437,0.028089887640449437,0.028089887640449437,0.028089887640449437,0.028089887640449437,0.02247191011235955,0.0,0.0,0.028089887640449437,0.025280898876404494,0.028089887640449437,0.028089887640449437,0.028089887640449437,0.028089887640449437,0.028089887640449437,0.019662921348314606,0.016853932584269662,0.0,0.028089887640449437,0.028089887640449437,0.028089887640449437,0.02247191011235955,0.02247191011235955,0.0,0.028089887640449437,0.028089887640449437,0.0,0.028089887640449437,0.02247191011235955,0.028089887640449437,0.028089887640449437
S10_D12 hbo,0.03112033195020747,0.0,0.0,0.03112033195020747,0.01867219917012448,0.0,0.0,0.029045643153526972,0.016597510373443983,0.03112033195020747,0.0,0.03112033195020747,0.016597510373443983,0.0,0.01867219917012448,0.0,0.0,0.029045643153526972,0.0,0.03112033195020747,0.03112033195020747,0.03112033195020747,0.03112033195020747,0.03112033195020747,0.03112033195020747,0.03112033195020747,0.016597510373443983,0.0,0.0,0.03112033195020747,0.02074688796680498,0.029045643153526972,0.029045643153526972,0.024896265560165973,0.026970954356846474,0.03112033195020747,0.016597510373443983,0.012448132780082987,0.0,0.024896265560165973,0.029045643153526972,0.03112033195020747,0.02074688796680498,0.024896265560165973,0.0,0.029045643153526972,0.029045643153526972,0.0,0.029045643153526972,0.024896265560165973,0.026970954356846474,0.02074688796680498
S11_D9 hbo,0.03112033195020747,0.0,0.0,0.03112033195020747,0.01867219917012448,0.0,0.0,0.029045643153526972,0.016597510373443983,0.03112033195020747,0.0,0.03112033195020747,0.016597510373443983,0.0,0.01867219917012448,0.0,0.0,0.029045643153526972,0.0,0.03112033195020747,0.03112033195020747,0.03112033195020747,0.03112033195020747,0.03112033195020747,0.03112033195020747,0.03112033195020747,0.016597510373443983,0.0,0.0,0.03112033195020747,0.02074688796680498,0.029045643153526972,0.029045643153526972,0.024896265560165973,0.026970954356846474,0.03112033195020747,0.016597510373443983,0.012448132780082987,0.0,0.024896265560165973,0.029045643153526972,0.03112033195020747,0.02074688796680498,0.024896265560165973,0.0,0.029045643153526972,0.029045643153526972,0.0,0.029045643153526972,0.024896265560165973,0.026970954356846474,0.02074688796680498
S11_D11 hbo,0.030501089324618737,0.0,0.0,0.02832244008714597,0.0196078431372549,0.0,0.0,0.026143790849673203,0.017429193899782137,0.030501089324618737,0.0,0.030501089324618737,0.017429193899782137,0.0,0.0196078431372549,0.0,0.0,0.030501089324618737,0.0,0.030501089324618737,0.030501089324618737,0.030501089324618737,0.02832244008714597,0.030501089324618737,0.030501089324618737,0.030501089324618737,0.017429193899782137,0.0,0.0,0.030501089324618737,0.02178649237472767,0.030501089324618737,0.030501089324618737,0.02832244008714597,0.026143790849673203,0.030501089324618737,0.0196078431372549,0.013071895424836602,0.0,0.02832244008714597,0.030501089324618737,0.030501089324618737,0.02178649237472767,0.02178649237472767,0.0,0.02832244008714597,0.02832244008714597,0.0,0.026143790849673203,0.02178649237472767,0.030501089324618737,0.02178649237472767
S11_D12 hbo,0.03051643192488263,0.0,0.0,0.03051643192488263,0.02112676056338028,0.0,0.0,0.03051643192488263,0.018779342723004695,0.03051643192488263,0.0,0.03051643192488263,0.018779342723004695,0.0,0.01643192488262911,0.0,0.0,0.028169014084507043,0.0,0.03051643192488263,0.03051643192488263,0.03051643192488263,0.03051643192488263,0.03051643192488263,0.03051643192488263,0.03051643192488263,0.018779342723004695,0.0,0.0,0.03051643192488263,0.018779342723004695,0.028169014084507043,0.028169014084507043,0.023474178403755867,0.028169014084507043,0.03051643192488263,0.014084507042253521,0.014084507042253521,0.0,0.023474178403755867,0.028169014084507043,0.03051643192488263,0.023474178403755867,0.028169014084507043,0.0,0.028169014084507043,0.028169014084507043,0.0,0.03051643192488263,0.028169014084507043,0.025821596244131457,0.02112676056338028
S11_D13 hbo,0.032196969696969696,0.0,0.0,0.028409090909090908,0.017045454545454544,0.0,0.0,0.026515151515151516,0.015151515151515152,0.03409090909090909,0.0,0.03409090909090909,0.015151515151515152,0.0,0.017045454545454544,0.0,0.0,0.028409090909090908,0.0,0.032196969696969696,0.032196969696969696,0.03409090909090909,0.030303030303030304,0.03409090909090909,0.03409090909090909,0.03409090909090909,0.015151515151515152,0.0,0.0,0.032196969696969696,0.01893939393939394,0.028409090909090908,0.028409090909090908,0.026515151515151516,0.02462121212121212,0.032196969696969696,0.01893939393939394,0.011363636363636364,0.0,0.02462121212121212,0.030303030303030304,0.03409090909090909,0.01893939393939394,0.022727272727272728,0.0,0.026515151515151516,0.026515151515151516,0.0,0.028409090909090908,0.02462121212121212,0.028409090909090908,0.01893939393939394
S12_D10 hbo,0.028089887640449437,0.0,0.0,0.025280898876404494,0.016853932584269662,0.0,0.0,0.02247191011235955,0.019662921348314606,0.03089887640449438,0.0,0.03089887640449438,0.019662921348314606,0.0,0.025280898876404494,0.0,0.0,0.028089887640449437,0.0,0.033707865168539325,0.03089887640449438,0.033707865168539325,0.025280898876404494,0.033707865168539325,0.03089887640449438,0.033707865168539325,0.016853932584269662,0.0,0.0,0.03089887640449438,0.025280898876404494,0.028089887640449437,0.028089887640449437,0.03089887640449438,0.02247191011235955,0.033707865168539325,0.03089887640449438,0.014044943820224719,0.0,0.028089887640449437,0.03089887640449438,0.033707865168539325,0.016853932584269662,0.016853932584269662,0.0,0.025280898876404494,0.025280898876404494,0.0,0.02247191011235955,0.016853932584269662,0.03089887640449438,0.02247191011235955
S12_D12 hbo,0.0273972602739726,0.0,0.0,0.0273972602739726,0.0273972602739726,0.0,0.0,0.0273972602739726,0.0228310502283105,0.0273972602739726,0.0,0.0273972602739726,0.0228310502283105,0.0,0.0182648401826484,0.0,0.0,0.0273972602739726,0.0,0.0273972602739726,0.0273972602739726,0.0273972602739726,0.0273972602739726,0.0273972602739726,0.0273972602739726,0.0273972602739726,0.0273972602739726,0.0,0.0,0.0273972602739726,0.0228310502283105,0.0273972602739726,0.0273972602739726,0.0273972602739726,0.0273972602739726,0.0273972602739726,0.0136986301369863,0.0228310502283105,0.0,0.0273972602739726,0.0273972602739726,0.0273972602739726,0.0273972602739726,0.0273972602739726,0.0,0.0273972602739726,0.0273972602739726,0.0,0.0273972602739726,0.0273972602739726,0.0273972602739726,0.0273972602739726
S12_D14 hbo,0.0,0.0,0.0,0.0,0.0,0.0,0.0,0.0,0.0,0.0,0.0,0.0,0.0,0.0,0.0,0.0,0.0,0.0,0.0,0.0,0.0,0.0,0.0,0.0,0.0,0.0,0.0,0.0,0.0,0.0,0.0,0.0,0.0,0.0,0.0,0.0,0.0,0.0,0.0,0.0,0.0,0.0,0.0,0.0,0.0,0.0,0.0,0.0,0.0,0.0,0.0,0.0
S13_D6 hbo,0.029612756264236904,0.0,0.0,0.029612756264236904,0.02050113895216401,0.0,0.0,0.02733485193621868,0.018223234624145785,0.029612756264236904,0.0,0.029612756264236904,0.018223234624145785,0.0,0.02050113895216401,0.0,0.0,0.029612756264236904,0.0,0.029612756264236904,0.029612756264236904,0.029612756264236904,0.029612756264236904,0.029612756264236904,0.029612756264236904,0.029612756264236904,0.018223234624145785,0.0,0.0,0.029612756264236904,0.022779043280182234,0.029612756264236904,0.029612756264236904,0.02733485193621868,0.02733485193621868,0.029612756264236904,0.018223234624145785,0.01366742596810934,0.0,0.02733485193621868,0.029612756264236904,0.029612756264236904,0.022779043280182234,0.022779043280182234,0.0,0.029612756264236904,0.029612756264236904,0.0,0.02733485193621868,0.022779043280182234,0.029612756264236904,0.022779043280182234
S13_D11 hbo,0.03187250996015936,0.0,0.0,0.029880478087649404,0.017928286852589643,0.0,0.0,0.027888446215139442,0.01593625498007968,0.03187250996015936,0.0,0.03187250996015936,0.01593625498007968,0.0,0.017928286852589643,0.0,0.0,0.029880478087649404,0.0,0.03187250996015936,0.03187250996015936,0.03187250996015936,0.029880478087649404,0.03187250996015936,0.03187250996015936,0.03187250996015936,0.01593625498007968,0.0,0.0,0.03187250996015936,0.0199203187250996,0.029880478087649404,0.029880478087649404,0.025896414342629483,0.025896414342629483,0.03187250996015936,0.017928286852589643,0.01195219123505976,0.0,0.025896414342629483,0.029880478087649404,0.03187250996015936,0.0199203187250996,0.02390438247011952,0.0,0.027888446215139442,0.027888446215139442,0.0,0.027888446215139442,0.02390438247011952,0.027888446215139442,0.0199203187250996
S13_D13 hbo,0.03377110694183865,0.0,0.0,0.028142589118198873,0.016885553470919325,0.0,0.0,0.02626641651031895,0.0150093808630394,0.03377110694183865,0.0,0.03377110694183865,0.0150093808630394,0.0,0.016885553470919325,0.0,0.0,0.028142589118198873,0.0,0.03189493433395872,0.03189493433395872,0.03564727954971857,0.03189493433395872,0.03564727954971857,0.03564727954971857,0.03377110694183865,0.0150093808630394,0.0,0.0,0.03189493433395872,0.01876172607879925,0.028142589118198873,0.028142589118198873,0.02626641651031895,0.024390243902439025,0.03189493433395872,0.01876172607879925,0.01125703564727955,0.0,0.024390243902439025,0.0300187617260788,0.03377110694183865,0.01876172607879925,0.0225140712945591,0.0,0.02626641651031895,0.02626641651031895,0.0,0.028142589118198873,0.024390243902439025,0.028142589118198873,0.01876172607879925
S13_D15 hbo,0.029498525073746312,0.0,0.0,0.029498525073746312,0.02359882005899705,0.0,0.0,0.029498525073746312,0.017699115044247787,0.029498525073746312,0.0,0.029498525073746312,0.017699115044247787,0.0,0.014749262536873156,0.0,0.0,0.029498525073746312,0.0,0.029498525073746312,0.029498525073746312,0.029498525073746312,0.029498525073746312,0.029498525073746312,0.029498525073746312,0.029498525073746312,0.02064896755162242,0.0,0.0,0.029498525073746312,0.017699115044247787,0.029498525073746312,0.029498525073746312,0.02359882005899705,0.029498525073746312,0.029498525073746312,0.011799410029498525,0.017699115044247787,0.0,0.02359882005899705,0.029498525073746312,0.029498525073746312,0.02654867256637168,0.029498525073746312,0.0,0.029498525073746312,0.029498525073746312,0.0,0.029498525073746312,0.029498525073746312,0.02654867256637168,0.02064896755162242
S14_D12 hbo,0.03260869565217391,0.0,0.0,0.029891304347826088,0.021739130434782608,0.0,0.0,0.029891304347826088,0.016304347826086956,0.03260869565217391,0.0,0.03260869565217391,0.016304347826086956,0.0,0.01358695652173913,0.0,0.0,0.02717391304347826,0.0,0.029891304347826088,0.029891304347826088,0.03260869565217391,0.03260869565217391,0.03260869565217391,0.03260869565217391,0.03260869565217391,0.019021739130434784,0.0,0.0,0.029891304347826088,0.016304347826086956,0.02717391304347826,0.02717391304347826,0.021739130434782608,0.02717391304347826,0.029891304347826088,0.010869565217391304,0.016304347826086956,0.0,0.021739130434782608,0.02717391304347826,0.03260869565217391,0.024456521739130436,0.029891304347826088,0.0,0.02717391304347826,0.02717391304347826,0.0,0.03260869565217391,0.03260869565217391,0.024456521739130436,0.019021739130434784
S14_D13 hbo,0.0,0.0,0.0,0.0,0.0,0.0,0.0,0.0,0.0,0.0,0.0,0.0,0.0,0.0,0.0,0.0,0.0,0.0,0.0,0.0,0.0,0.0,0.0,0.0,0.0,0.0,0.0,0.0,0.0,0.0,0.0,0.0,0.0,0.0,0.0,0.0,0.0,0.0,0.0,0.0,0.0,0.0,0.0,0.0,0.0,0.0,0.0,0.0,0.0,0.0,0.0,0.0
S14_D14 hbo,0.03070175438596491,0.0,0.0,0.03070175438596491,0.019736842105263157,0.0,0.0,0.03070175438596491,0.017543859649122806,0.03070175438596491,0.0,0.03070175438596491,0.017543859649122806,0.0,0.017543859649122806,0.0,0.0,0.02850877192982456,0.0,0.03070175438596491,0.03070175438596491,0.03070175438596491,0.03070175438596491,0.03070175438596491,0.03070175438596491,0.03070175438596491,0.017543859649122806,0.0,0.0,0.03070175438596491,0.019736842105263157,0.02850877192982456,0.02850877192982456,0.02412280701754386,0.02850877192982456,0.03070175438596491,0.015350877192982455,0.013157894736842105,0.0,0.02412280701754386,0.02850877192982456,0.03070175438596491,0.021929824561403508,0.02631578947368421,0.0,0.02850877192982456,0.02850877192982456,0.0,0.03070175438596491,0.02631578947368421,0.02631578947368421,0.021929824561403508
S14_D16 hbo,0.03070175438596491,0.0,0.0,0.03070175438596491,0.019736842105263157,0.0,0.0,0.03070175438596491,0.017543859649122806,0.03070175438596491,0.0,0.03070175438596491,0.017543859649122806,0.0,0.017543859649122806,0.0,0.0,0.02850877192982456,0.0,0.03070175438596491,0.03070175438596491,0.03070175438596491,0.03070175438596491,0.03070175438596491,0.03070175438596491,0.03070175438596491,0.017543859649122806,0.0,0.0,0.03070175438596491,0.019736842105263157,0.02850877192982456,0.02850877192982456,0.02412280701754386,0.02850877192982456,0.03070175438596491,0.015350877192982455,0.013157894736842105,0.0,0.02412280701754386,0.02850877192982456,0.03070175438596491,0.021929824561403508,0.02631578947368421,0.0,0.02850877192982456,0.02850877192982456,0.0,0.03070175438596491,0.02631578947368421,0.02631578947368421,0.021929824561403508
S15_D13 hbo,0.0,0.0,0.0,0.0,0.0,0.0,0.0,0.0,0.0,0.0,0.0,0.0,0.0,0.0,0.0,0.0,0.0,0.0,0.0,0.0,0.0,0.0,0.0,0.0,0.0,0.0,0.0,0.0,0.0,0.0,0.0,0.0,0.0,0.0,0.0,0.0,0.0,0.0,0.0,0.0,0.0,0.0,0.0,0.0,0.0,0.0,0.0,0.0,0.0,0.0,0.0,0.0
S15_D15 hbo,0.033936651583710405,0.0,0.0,0.029411764705882353,0.020361990950226245,0.0,0.0,0.029411764705882353,0.01809954751131222,0.03167420814479638,0.0,0.03167420814479638,0.01809954751131222,0.0,0.01583710407239819,0.0,0.0,0.027149321266968326,0.0,0.029411764705882353,0.029411764705882353,0.033936651583710405,0.033936651583710405,0.033936651583710405,0.033936651583710405,0.03167420814479638,0.01809954751131222,0.0,0.0,0.029411764705882353,0.01809954751131222,0.027149321266968326,0.027149321266968326,0.02262443438914027,0.027149321266968326,0.029411764705882353,0.013574660633484163,0.013574660633484163,0.0,0.02262443438914027,0.027149321266968326,0.03167420814479638,0.02262443438914027,0.027149321266968326,0.0,0.027149321266968326,0.027149321266968326,0.0,0.03167420814479638,0.029411764705882353,0.024886877828054297,0.020361990950226245
S15_D16 hbo,0.03485254691689008,0.0,0.0,0.029490616621983913,0.021447721179624665,0.0,0.0,0.029490616621983913,0.0160857908847185,0.032171581769437,0.0,0.032171581769437,0.0160857908847185,0.0,0.013404825737265416,0.0,0.0,0.02680965147453083,0.0,0.029490616621983913,0.029490616621983913,0.03485254691689008,0.03485254691689008,0.03485254691689008,0.03485254691689008,0.032171581769437,0.01876675603217158,0.0,0.0,0.029490616621983913,0.0160857908847185,0.02680965147453083,0.02680965147453083,0.021447721179624665,0.02680965147453083,0.029490616621983913,0.010723860589812333,0.0160857908847185,0.0,0.021447721179624665,0.02680965147453083,0.032171581769437,0.024128686327077747,0.029490616621983913,0.0,0.02680965147453083,0.02680965147453083,0.0,0.032171581769437,0.032171581769437,0.024128686327077747,0.01876675603217158
S16_D14 hbo,0.030991735537190084,0.0,0.0,0.028925619834710745,0.01859504132231405,0.0,0.0,0.026859504132231406,0.01652892561983471,0.030991735537190084,0.0,0.030991735537190084,0.01652892561983471,0.0,0.01859504132231405,0.0,0.0,0.030991735537190084,0.0,0.030991735537190084,0.030991735537190084,0.030991735537190084,0.028925619834710745,0.030991735537190084,0.030991735537190084,0.030991735537190084,0.01652892561983471,0.0,0.0,0.030991735537190084,0.02066115702479339,0.030991735537190084,0.030991735537190084,0.026859504132231406,0.026859504132231406,0.030991735537190084,0.01859504132231405,0.012396694214876033,0.0,0.026859504132231406,0.030991735537190084,0.030991735537190084,0.02066115702479339,0.022727272727272728,0.0,0.028925619834710745,0.028925619834710745,0.0,0.026859504132231406,0.022727272727272728,0.028925619834710745,0.02066115702479339
S16_D16 hbo,0.028089887640449437,0.0,0.0,0.028089887640449437,0.025280898876404494,0.0,0.0,0.028089887640449437,0.02247191011235955,0.028089887640449437,0.0,0.028089887640449437,0.02247191011235955,0.0,0.019662921348314606,0.0,0.0,0.028089887640449437,0.0,0.028089887640449437,0.028089887640449437,0.028089887640449437,0.028089887640449437,0.028089887640449437,0.028089887640449437,0.028089887640449437,0.02247191011235955,0.0,0.0,0.028089887640449437,0.02247191011235955,0.028089887640449437,0.028089887640449437,0.028089887640449437,0.028089887640449437,0.028089887640449437,0.016853932584269662,0.016853932584269662,0.0,0.028089887640449437,0.028089887640449437,0.028089887640449437,0.025280898876404494,0.025280898876404494,0.0,0.028089887640449437,0.028089887640449437,0.0,0.028089887640449437,0.025280898876404494,0.028089887640449437,0.025280898876404494
