,S1_D1 hbo,S1_D3 hbo,S2_D1 hbo,S2_D2 hbo,S2_D4 hbo,S3_D1 hbo,S3_D3 hbo,S3_D4 hbo,S3_D5 hbo,S4_D2 hbo,S4_D4 hbo,S4_D6 hbo,S4_D11 hbo,S5_D3 hbo,S5_D5 hbo,S5_D7 hbo,S6_D4 hbo,S6_D5 hbo,S6_D6 hbo,S6_D8 hbo,S7_D5 hbo,S7_D7 hbo,S7_D8 hbo,S8_D6 hbo,S8_D8 hbo,S8_D15 hbo,S9_D2 hbo,S9_D9 hbo,S9_D11 hbo,S10_D9 hbo,S10_D10 hbo,S10_D12 hbo,S11_D9 hbo,S11_D11 hbo,S11_D12 hbo,S11_D13 hbo,S12_D10 hbo,S12_D12 hbo,S12_D14 hbo,S13_D6 hbo,S13_D11 hbo,S13_D13 hbo,S13_D15 hbo,S14_D12 hbo,S14_D13 hbo,S14_D14 hbo,S14_D16 hbo,S15_D13 hbo,S15_D15 hbo,S15_D16 hbo,S16_D14 hbo,S16_D16 hbo
S1_D1 hbo,0.3055555555555556,0.037037037037037035,0.14814814814814814,0.0,0.0,0.25,0.25925925925925924,0.0,0.0,0.0,0.0,0.0,0.0,0.0,0.0,0.0,0.0,0.0,0.0,0.0,0.0,0.0,0.0,0.0,0.0,0.0,0.0,0.0,0.0,0.0,0.0,0.0,0.0,0.0,0.0,0.0,0.0,0.0,0.0,0.0,0.0,0.0,0.0,0.0,0.0,0.0,0.0,0.0,0.0,0.0,0.0,0.0
S1_D3 hbo,0.013559322033898305,0.1016949152542373,0.013559322033898305,0.0,0.0,0.013559322033898305,0.013559322033898305,0.0,0.03728813559322034,0.0,0.0,0.0,0.0,0.0,0.04745762711864407,0.08135593220338982,0.0,0.0847457627118644,0.0,0.04067796610169491,0.08135593220338982,0.0,0.0,0.0,0.023728813559322035,0.0,0.0,0.0,0.07796610169491526,0.0,0.0,0.0,0.0,0.0,0.061016949152542375,0.0,0.0,0.010169491525423728,0.0,0.0,0.0,0.0,0.0,0.05423728813559322,0.0847457627118644,0.0,0.04745762711864407,0.0,0.0,0.0,0.06779661016949153,0.04406779661016949
S2_D1 hbo,0.21621621621621623,0.05405405405405406,0.21621621621621623,0.0,0.0,0.21621621621621623,0.21621621621621623,0.0,0.0,0.0,0.0,0.0,0.0,0.013513513513513514,0.0,0.0,0.0,0.0,0.0,0.0,0.0,0.0,0.013513513513513514,0.0,0.0,0.013513513513513514,0.013513513513513514,0.0,0.0,0.013513513513513514,0.0,0.0,0.0,0.0,0.0,0.0,0.0,0.0,0.0,0.0,0.0,0.0,0.0,0.0,0.0,0.0,0.0,0.0,0.0,0.013513513513513514,0.0,0.0
S2_D2 hbo,0.0,0.0,0.0,0.0392156862745098,0.02306805074971165,0.0,0.0,0.011534025374855825,0.031141868512110725,0.031141868512110725,0.002306805074971165,0.0,0.02883506343713956,0.02306805074971165,0.031141868512110725,0.029988465974625143,0.0,0.02191464821222607,0.010380622837370242,0.002306805074971165,0.02306805074971165,0.0,0.0,0.0,0.031141868512110725,0.0,0.01730103806228374,0.03460207612456748,0.040369088811995385,0.029988465974625143,0.03229527104959631,0.02306805074971165,0.03344867358708189,0.040369088811995385,0.0392156862745098,0.03690888119953864,0.016147635524798153,0.0265282583621684,0.02306805074971165,0.0,0.002306805074971165,0.040369088811995385,0.02883506343713956,0.03344867358708189,0.03460207612456748,0.01730103806228374,0.0,0.0,0.040369088811995385,0.01384083044982699,0.02768166089965398,0.02768166089965398
S2_D4 hbo,0.0,0.0,0.0,0.03076923076923077,0.02923076923076923,0.0,0.0,0.015384615384615385,0.03076923076923077,0.03076923076923077,0.003076923076923077,0.0,0.03076923076923077,0.02923076923076923,0.03076923076923077,0.03076923076923077,0.0,0.024615384615384615,0.013846153846153847,0.003076923076923077,0.02923076923076923,0.0,0.0,0.0,0.03076923076923077,0.0,0.023076923076923078,0.03076923076923077,0.03076923076923077,0.03076923076923077,0.03076923076923077,0.02923076923076923,0.03076923076923077,0.03076923076923077,0.03076923076923077,0.03076923076923077,0.021538461538461538,0.02923076923076923,0.027692307692307693,0.0,0.003076923076923077,0.03076923076923077,0.03076923076923077,0.03076923076923077,0.03076923076923077,0.023076923076923078,0.0,0.0,0.03076923076923077,0.018461538461538463,0.03076923076923077,0.03076923076923077
S3_D1 hbo,0.27358490566037735,0.03773584905660377,0.1509433962264151,0.0,0.0,0.2641509433962264,0.27358490566037735,0.0,0.0,0.0,0.0,0.0,0.0,0.0,0.0,0.0,0.0,0.0,0.0,0.0,0.0,0.0,0.0,0.0,0.0,0.0,0.0,0.0,0.0,0.0,0.0,0.0,0.0,0.0,0.0,0.0,0.0,0.0,0.0,0.0,0.0,0.0,0.0,0.0,0.0,0.0,0.0,0.0,0.0,0.0,0.0,0.0
S3_D3 hbo,0.23770491803278687,0.03278688524590164,0.13114754098360656,0.0,0.0,0.23770491803278687,0.36065573770491804,0.0,0.0,0.0,0.0,0.0,0.0,0.0,0.0,0.0,0.0,0.0,0.0,0.0,0.0,0.0,0.0,0.0,0.0,0.0,0.0,0.0,0.0,0.0,0.0,0.0,0.0,0.0,0.0,0.0,0.0,0.0,0.0,0.0,0.0,0.0,0.0,0.0,0.0,0.0,0.0,0.0,0.0,0.0,0.0,0.0
S3_D4 hbo,0.0,0.0,0.0,0.028409090909090908,0.028409090909090908,0.0,0.0,0.02556818181818182,0.028409090909090908,0.028409090909090908,0.005681818181818182,0.0,0.028409090909090908,0.028409090909090908,0.028409090909090908,0.028409090909090908,0.0,0.028409090909090908,0.02556818181818182,0.005681818181818182,0.028409090909090908,0.0,0.0,0.0,0.028409090909090908,0.0,0.028409090909090908,0.028409090909090908,0.028409090909090908,0.028409090909090908,0.028409090909090908,0.028409090909090908,0.028409090909090908,0.028409090909090908,0.028409090909090908,0.028409090909090908,0.02556818181818182,0.028409090909090908,0.028409090909090908,0.0,0.005681818181818182,0.028409090909090908,0.028409090909090908,0.028409090909090908,0.028409090909090908,0.028409090909090908,0.0,0.0,0.028409090909090908,0.02556818181818182,0.028409090909090908,0.028409090909090908
S3_D5 hbo,0.0,0.010338345864661654,0.0,0.02537593984962406,0.018796992481203006,0.0,0.0,0.009398496240601503,0.05451127819548872,0.02443609022556391,0.0018796992481203006,0.0,0.023496240601503758,0.018796992481203006,0.03383458646616541,0.03477443609022556,0.0,0.04981203007518797,0.008458646616541353,0.009398496240601503,0.04887218045112782,0.0,0.0,0.0,0.03007518796992481,0.0,0.014097744360902255,0.02537593984962406,0.03571428571428571,0.02443609022556391,0.02443609022556391,0.018796992481203006,0.02537593984962406,0.02537593984962406,0.03571428571428571,0.02537593984962406,0.013157894736842105,0.02443609022556391,0.018796992481203006,0.0,0.0018796992481203006,0.02537593984962406,0.023496240601503758,0.03571428571428571,0.03571428571428571,0.014097744360902255,0.010338345864661654,0.0,0.02537593984962406,0.011278195488721804,0.05263157894736842,0.05075187969924812
S4_D2 hbo,0.0,0.0,0.0,0.034571062740076826,0.02560819462227913,0.0,0.0,0.012804097311139564,0.030729833546734954,0.03329065300896287,0.002560819462227913,0.0,0.03201024327784891,0.02560819462227913,0.030729833546734954,0.030729833546734954,0.0,0.023047375160051217,0.011523687580025609,0.002560819462227913,0.02560819462227913,0.0,0.0,0.0,0.03329065300896287,0.0,0.019206145966709345,0.034571062740076826,0.034571062740076826,0.030729833546734954,0.030729833546734954,0.02560819462227913,0.03201024327784891,0.034571062740076826,0.034571062740076826,0.034571062740076826,0.01792573623559539,0.026888604353393086,0.02560819462227913,0.0,0.002560819462227913,0.034571062740076826,0.030729833546734954,0.03329065300896287,0.03329065300896287,0.019206145966709345,0.0,0.0,0.034571062740076826,0.015364916773367477,0.030729833546734954,0.029449423815621
S4_D4 hbo,0.0,0.0,0.0,0.007168458781362007,0.007168458781362007,0.0,0.0,0.007168458781362007,0.007168458781362007,0.007168458781362007,0.08602150537634409,0.08602150537634409,0.0931899641577061,0.007168458781362007,0.007168458781362007,0.007168458781362007,0.08602150537634409,0.007168458781362007,0.007168458781362007,0.0,0.007168458781362007,0.0,0.0,0.08602150537634409,0.007168458781362007,0.0,0.007168458781362007,0.007168458781362007,0.007168458781362007,0.007168458781362007,0.007168458781362007,0.007168458781362007,0.007168458781362007,0.007168458781362007,0.007168458781362007,0.007168458781362007,0.007168458781362007,0.007168458781362007,0.007168458781362007,0.08602150537634409,0.08602150537634409,0.007168458781362007,0.06810035842293907,0.007168458781362007,0.007168458781362007,0.007168458781362007,0.0,0.08602150537634409,0.007168458781362007,0.007168458781362007,0.007168458781362007,0.007168458781362007
S4_D6 hbo,0.0,0.0,0.0,0.0,0.0,0.0,0.0,0.0,0.0,0.0,0.06741573033707865,0.14606741573033707,0.08146067415730338,0.0,0.0,0.0,0.12359550561797752,0.0,0.0,0.0,0.0,0.0,0.0,0.11797752808988764,0.0,0.0,0.0,0.0,0.0,0.0,0.0,0.0,0.0,0.0,0.0,0.0,0.0,0.0,0.0,0.13764044943820225,0.1348314606741573,0.0,0.07865168539325842,0.0,0.0,0.0,0.0,0.11235955056179775,0.0,0.0,0.0,0.0
S4_D11 hbo,0.0,0.0,0.0,0.025150905432595575,0.02012072434607646,0.0,0.0,0.01006036217303823,0.023138832997987926,0.025150905432595575,0.026156941649899398,0.029175050301810865,0.052313883299798795,0.02012072434607646,0.023138832997987926,0.023138832997987926,0.029175050301810865,0.01710261569416499,0.009054325955734407,0.002012072434607646,0.02012072434607646,0.0,0.0,0.029175050301810865,0.025150905432595575,0.0,0.015090543259557344,0.025150905432595575,0.025150905432595575,0.023138832997987926,0.023138832997987926,0.02012072434607646,0.02414486921529175,0.025150905432595575,0.025150905432595575,0.025150905432595575,0.014084507042253521,0.02012072434607646,0.019114688128772636,0.029175050301810865,0.03118712273641851,0.025150905432595575,0.043259557344064385,0.025150905432595575,0.025150905432595575,0.015090543259557344,0.0,0.029175050301810865,0.025150905432595575,0.012072434607645875,0.023138832997987926,0.022132796780684104
S5_D3 hbo,0.0,0.0,0.0015220700152207,0.030441400304414,0.0289193302891933,0.0,0.0,0.015220700152207,0.030441400304414,0.030441400304414,0.0030441400304414,0.0,0.030441400304414,0.030441400304414,0.030441400304414,0.030441400304414,0.0,0.0243531202435312,0.0136986301369863,0.0030441400304414,0.0289193302891933,0.0,0.0015220700152207,0.0,0.030441400304414,0.0015220700152207,0.0243531202435312,0.030441400304414,0.030441400304414,0.0319634703196347,0.030441400304414,0.0289193302891933,0.030441400304414,0.030441400304414,0.030441400304414,0.030441400304414,0.0213089802130898,0.0289193302891933,0.0273972602739726,0.0,0.0030441400304414,0.030441400304414,0.030441400304414,0.030441400304414,0.030441400304414,0.0228310502283105,0.0,0.0,0.030441400304414,0.0197869101978691,0.030441400304414,0.030441400304414
S5_D5 hbo,0.0,0.012808783165599268,0.0,0.024702653247941447,0.018298261665141813,0.0,0.0,0.009149130832570906,0.03385178408051235,0.023787740164684355,0.0018298261665141812,0.0,0.022872827081427266,0.018298261665141813,0.04940530649588289,0.05032021957913998,0.0,0.03019213174748399,0.008234217749313814,0.011893870082342177,0.03110704483074108,0.0,0.0,0.0,0.03019213174748399,0.0,0.013723696248856358,0.024702653247941447,0.03751143641354071,0.023787740164684355,0.023787740164684355,0.018298261665141813,0.024702653247941447,0.024702653247941447,0.03751143641354071,0.024702653247941447,0.027447392497712716,0.03751143641354071,0.03110704483074108,0.0,0.0018298261665141812,0.024702653247941447,0.022872827081427266,0.03751143641354071,0.03751143641354071,0.020128087831655993,0.011893870082342177,0.0,0.024702653247941447,0.010978956999085087,0.04940530649588289,0.03202195791399817
S5_D7 hbo,0.0,0.021867115222876366,0.0,0.021867115222876366,0.01682085786375105,0.0,0.0,0.008410428931875526,0.030277544154751892,0.021867115222876366,0.001682085786375105,0.0,0.021026072329688814,0.01682085786375105,0.04625735912531539,0.05887300252312868,0.0,0.040370058873002525,0.007569386038687973,0.01345668629100084,0.040370058873002525,0.0,0.0,0.0,0.027754415475189236,0.0,0.012615643397813289,0.021867115222876366,0.044575273338940284,0.021026072329688814,0.021026072329688814,0.01682085786375105,0.021867115222876366,0.021867115222876366,0.03700588730025231,0.021867115222876366,0.02691337258200168,0.03532380151387721,0.030277544154751892,0.0,0.001682085786375105,0.021867115222876366,0.021026072329688814,0.03532380151387721,0.04625735912531539,0.018502943650126155,0.011774600504625737,0.0,0.021867115222876366,0.010092514718250631,0.05214465937762826,0.031118587047939444
S6_D4 hbo,0.0,0.0,0.0,0.0,0.0,0.0,0.0,0.0,0.0,0.0,0.07339449541284404,0.1345565749235474,0.08868501529051988,0.0,0.0,0.0,0.13149847094801223,0.0,0.0,0.0,0.0,0.0,0.0,0.12232415902140673,0.0,0.0,0.0,0.0,0.0,0.0,0.0,0.0,0.0,0.0,0.0,0.0,0.0,0.0,0.0,0.12844036697247707,0.1345565749235474,0.0,0.0856269113149847,0.0,0.0,0.0,0.0,0.10091743119266056,0.0,0.0,0.0,0.0
S6_D5 hbo,0.0,0.025738798856053385,0.0,0.01811248808388942,0.017159199237368923,0.0,0.0,0.009532888465204958,0.05052430886558627,0.01811248808388942,0.0019065776930409914,0.0,0.01811248808388942,0.017159199237368923,0.03145853193517636,0.04575786463298379,0.0,0.07530981887511916,0.008579599618684462,0.015252621544327931,0.06768350810295519,0.0,0.0,0.0,0.02478551000953289,0.0,0.014299332697807437,0.01811248808388942,0.04575786463298379,0.01811248808388942,0.01811248808388942,0.017159199237368923,0.01811248808388942,0.01811248808388942,0.03527168732125834,0.01811248808388942,0.01334604385128694,0.020972354623450904,0.01811248808388942,0.0,0.0019065776930409914,0.01811248808388942,0.01811248808388942,0.03336510962821735,0.04575786463298379,0.014299332697807437,0.01334604385128694,0.0,0.01811248808388942,0.011439466158245948,0.057197330791229746,0.04957102001906578
S6_D6 hbo,0.0,0.0,0.0,0.028846153846153848,0.028846153846153848,0.0,0.0,0.022435897435897436,0.028846153846153848,0.028846153846153848,0.00641025641025641,0.0,0.028846153846153848,0.028846153846153848,0.028846153846153848,0.028846153846153848,0.0,0.02564102564102564,0.02564102564102564,0.00641025641025641,0.028846153846153848,0.0,0.0,0.0,0.028846153846153848,0.0,0.028846153846153848,0.028846153846153848,0.028846153846153848,0.028846153846153848,0.028846153846153848,0.028846153846153848,0.028846153846153848,0.028846153846153848,0.028846153846153848,0.028846153846153848,0.022435897435897436,0.028846153846153848,0.028846153846153848,0.0,0.00641025641025641,0.028846153846153848,0.028846153846153848,0.028846153846153848,0.028846153846153848,0.02564102564102564,0.0,0.0,0.028846153846153848,0.022435897435897436,0.028846153846153848,0.028846153846153848
S6_D8 hbo,0.0,0.05363984674329502,0.0,0.007662835249042145,0.007662835249042145,0.0,0.0,0.007662835249042145,0.04597701149425287,0.007662835249042145,0.007662835249042145,0.0,0.007662835249042145,0.007662835249042145,0.05747126436781609,0.06130268199233716,0.0,0.06130268199233716,0.007662835249042145,0.05363984674329502,0.06130268199233716,0.0,0.0,0.0,0.034482758620689655,0.0,0.007662835249042145,0.007662835249042145,0.06130268199233716,0.007662835249042145,0.007662835249042145,0.007662835249042145,0.007662835249042145,0.007662835249042145,0.05747126436781609,0.007662835249042145,0.007662835249042145,0.019157088122605363,0.007662835249042145,0.0,0.0,0.007662835249042145,0.007662835249042145,0.05363984674329502,0.06130268199233716,0.007662835249042145,0.0421455938697318,0.0,0.007662835249042145,0.007662835249042145,0.05747126436781609,0.0421455938697318
S7_D5 hbo,0.0,0.024738344433872503,0.0,0.019029495718363463,0.01807802093244529,0.0,0.0,0.009514747859181731,0.047573739295908656,0.019029495718363463,0.0019029495718363464,0.0,0.019029495718363463,0.01807802093244529,0.03235014272121789,0.04567078972407231,0.0,0.06374881065651761,0.008563273073263558,0.015223596574690771,0.06660323501427212,0.0,0.0,0.0,0.025689819219790674,0.0,0.014272121788772598,0.019029495718363463,0.04471931493815414,0.019029495718363463,0.019029495718363463,0.01807802093244529,0.019029495718363463,0.019029495718363463,0.03615604186489058,0.019029495718363463,0.013320647002854425,0.02093244529019981,0.017126546146527116,0.0,0.0019029495718363464,0.019029495718363463,0.019029495718363463,0.03425309229305423,0.046622264509990484,0.014272121788772598,0.013320647002854425,0.0,0.019029495718363463,0.011417697431018078,0.05708848715509039,0.05042816365366318
S7_D7 hbo,0.0,0.0,0.0,0.0,0.0,0.0,0.0,0.0,0.0,0.0,0.0,0.0,0.0,0.0,0.0,0.0,0.0,0.0,0.0,0.0,0.0,0.0,0.0,0.0,0.0,0.0,0.0,0.0,0.0,0.0,0.0,0.0,0.0,0.0,0.0,0.0,0.0,0.0,0.0,0.0,0.0,0.0,0.0,0.0,0.0,0.0,0.0,0.0,0.0,0.0,0.0,0.0
S7_D8 hbo,0.0,0.0,0.14285714285714285,0.0,0.0,0.0,0.0,0.0,0.0,0.0,0.0,0.0,0.0,0.14285714285714285,0.0,0.0,0.0,0.0,0.0,0.0,0.0,0.0,0.14285714285714285,0.0,0.0,0.14285714285714285,0.14285714285714285,0.0,0.0,0.14285714285714285,0.0,0.0,0.0,0.0,0.0,0.0,0.0,0.0,0.0,0.0,0.0,0.0,0.0,0.0,0.0,0.0,0.0,0.0,0.0,0.14285714285714285,0.0,0.0
S8_D6 hbo,0.0,0.0,0.0,0.0,0.0,0.0,0.0,0.0,0.0,0.0,0.07407407407407407,0.12962962962962962,0.08950617283950617,0.0,0.0,0.0,0.12962962962962962,0.0,0.0,0.0,0.0,0.0,0.0,0.12654320987654322,0.0,0.0,0.0,0.0,0.0,0.0,0.0,0.0,0.0,0.0,0.0,0.0,0.0,0.0,0.0,0.12962962962962962,0.12962962962962962,0.0,0.08641975308641975,0.0,0.0,0.0,0.0,0.10493827160493827,0.0,0.0,0.0,0.0
S8_D8 hbo,0.0,0.007882882882882882,0.0,0.030405405405405407,0.02252252252252252,0.0,0.0,0.01126126126126126,0.03490990990990991,0.02927927927927928,0.0022522522522522522,0.0,0.028153153153153154,0.02252252252252252,0.03490990990990991,0.03490990990990991,0.0,0.028153153153153154,0.010135135135135136,0.010135135135135136,0.030405405405405407,0.0,0.0,0.0,0.036036036036036036,0.0,0.016891891891891893,0.030405405405405407,0.038288288288288286,0.02702702702702703,0.02702702702702703,0.02252252252252252,0.028153153153153154,0.030405405405405407,0.038288288288288286,0.030405405405405407,0.015765765765765764,0.02702702702702703,0.02252252252252252,0.0,0.0022522522522522522,0.030405405405405407,0.02702702702702703,0.037162162162162164,0.037162162162162164,0.016891891891891893,0.007882882882882882,0.0,0.030405405405405407,0.013513513513513514,0.03490990990990991,0.033783783783783786
S8_D15 hbo,0.0,0.0,0.14285714285714285,0.0,0.0,0.0,0.0,0.0,0.0,0.0,0.0,0.0,0.0,0.14285714285714285,0.0,0.0,0.0,0.0,0.0,0.0,0.0,0.0,0.14285714285714285,0.0,0.0,0.14285714285714285,0.14285714285714285,0.0,0.0,0.14285714285714285,0.0,0.0,0.0,0.0,0.0,0.0,0.0,0.0,0.0,0.0,0.0,0.0,0.0,0.0,0.0,0.0,0.0,0.0,0.0,0.14285714285714285,0.0,0.0
S9_D2 hbo,0.0,0.0,0.001937984496124031,0.029069767441860465,0.029069767441860465,0.0,0.0,0.01937984496124031,0.029069767441860465,0.029069767441860465,0.003875968992248062,0.0,0.029069767441860465,0.031007751937984496,0.029069767441860465,0.029069767441860465,0.0,0.025193798449612403,0.01744186046511628,0.003875968992248062,0.029069767441860465,0.0,0.001937984496124031,0.0,0.029069767441860465,0.001937984496124031,0.029069767441860465,0.029069767441860465,0.029069767441860465,0.031007751937984496,0.029069767441860465,0.029069767441860465,0.029069767441860465,0.029069767441860465,0.029069767441860465,0.029069767441860465,0.023255813953488372,0.029069767441860465,0.029069767441860465,0.0,0.003875968992248062,0.029069767441860465,0.029069767441860465,0.029069767441860465,0.029069767441860465,0.025193798449612403,0.0,0.0,0.029069767441860465,0.025193798449612403,0.029069767441860465,0.029069767441860465
S9_D9 hbo,0.0,0.0,0.001199040767386091,0.03597122302158273,0.023980815347721823,0.0,0.0,0.011990407673860911,0.03117505995203837,0.03237410071942446,0.002398081534772182,0.0,0.02997601918465228,0.025179856115107913,0.03117505995203837,0.03117505995203837,0.0,0.022781774580335732,0.01079136690647482,0.002398081534772182,0.023980815347721823,0.0,0.001199040767386091,0.0,0.03237410071942446,0.001199040767386091,0.019184652278177457,0.03477218225419664,0.03597122302158273,0.03237410071942446,0.03117505995203837,0.023980815347721823,0.03237410071942446,0.03597122302158273,0.03597122302158273,0.03597122302158273,0.016786570743405275,0.027577937649880094,0.023980815347721823,0.0,0.002398081534772182,0.03597122302158273,0.02997601918465228,0.03357314148681055,0.03357314148681055,0.017985611510791366,0.0,0.0,0.03597122302158273,0.015587529976019185,0.02877697841726619,0.02877697841726619
S9_D11 hbo,0.0,0.021258503401360544,0.0008503401360544217,0.02891156462585034,0.017006802721088437,0.0,0.0,0.008503401360544218,0.03231292517006803,0.02295918367346939,0.0017006802721088435,0.0,0.021258503401360544,0.017857142857142856,0.03486394557823129,0.0467687074829932,0.0,0.041666666666666664,0.007653061224489796,0.013605442176870748,0.041666666666666664,0.0,0.0008503401360544217,0.0,0.02891156462585034,0.0008503401360544217,0.013605442176870748,0.025510204081632654,0.05442176870748299,0.02295918367346939,0.023809523809523808,0.017006802721088437,0.02465986394557823,0.02976190476190476,0.04421768707482993,0.027210884353741496,0.011904761904761904,0.022108843537414966,0.017006802721088437,0.0,0.0017006802721088435,0.030612244897959183,0.021258503401360544,0.03826530612244898,0.04931972789115646,0.012755102040816327,0.011904761904761904,0.0,0.030612244897959183,0.011054421768707483,0.03741496598639456,0.031462585034013606
S10_D9 hbo,0.0,0.0,0.0012658227848101266,0.03291139240506329,0.02531645569620253,0.0,0.0,0.012658227848101266,0.03164556962025317,0.03291139240506329,0.002531645569620253,0.0,0.03164556962025317,0.026582278481012658,0.03164556962025317,0.03164556962025317,0.0,0.024050632911392405,0.01139240506329114,0.002531645569620253,0.02531645569620253,0.0,0.0012658227848101266,0.0,0.03291139240506329,0.0012658227848101266,0.020253164556962026,0.03291139240506329,0.03291139240506329,0.03291139240506329,0.03164556962025317,0.02531645569620253,0.03291139240506329,0.03291139240506329,0.03291139240506329,0.03291139240506329,0.017721518987341773,0.027848101265822784,0.02531645569620253,0.0,0.002531645569620253,0.03291139240506329,0.03164556962025317,0.03291139240506329,0.03291139240506329,0.0189873417721519,0.0,0.0,0.03291139240506329,0.016455696202531647,0.030379746835443037,0.030379746835443037
S10_D10 hbo,0.0,0.0,0.0,0.03519417475728155,0.024271844660194174,0.0,0.0,0.012135922330097087,0.032766990291262135,0.03155339805825243,0.0024271844660194173,0.0,0.03033980582524272,0.024271844660194174,0.032766990291262135,0.03155339805825243,0.0,0.023058252427184466,0.010922330097087379,0.0024271844660194173,0.024271844660194174,0.0,0.0,0.0,0.03155339805825243,0.0,0.01820388349514563,0.03398058252427184,0.03519417475728155,0.03155339805825243,0.03398058252427184,0.024271844660194174,0.03519417475728155,0.03519417475728155,0.03519417475728155,0.03519417475728155,0.01699029126213592,0.027912621359223302,0.024271844660194174,0.0,0.0024271844660194173,0.03519417475728155,0.03033980582524272,0.03398058252427184,0.03519417475728155,0.01820388349514563,0.0,0.0,0.03519417475728155,0.014563106796116505,0.02912621359223301,0.02912621359223301
S10_D12 hbo,0.0,0.0,0.0015220700152207,0.030441400304414,0.0289193302891933,0.0,0.0,0.015220700152207,0.030441400304414,0.030441400304414,0.0030441400304414,0.0,0.030441400304414,0.030441400304414,0.030441400304414,0.030441400304414,0.0,0.0243531202435312,0.0136986301369863,0.0030441400304414,0.0289193302891933,0.0,0.0015220700152207,0.0,0.030441400304414,0.0015220700152207,0.0243531202435312,0.030441400304414,0.030441400304414,0.0319634703196347,0.030441400304414,0.0289193302891933,0.030441400304414,0.030441400304414,0.030441400304414,0.030441400304414,0.0213089802130898,0.0289193302891933,0.0273972602739726,0.0,0.0030441400304414,0.030441400304414,0.030441400304414,0.030441400304414,0.030441400304414,0.0228310502283105,0.0,0.0,0.030441400304414,0.0197869101978691,0.030441400304414,0.030441400304414
S11_D9 hbo,0.0,0.0,0.0,0.035108958837772396,0.024213075060532687,0.0,0.0,0.012106537530266344,0.03268765133171913,0.03268765133171913,0.002421307506053269,0.0,0.03026634382566586,0.024213075060532687,0.03268765133171913,0.031476997578692496,0.0,0.023002421307506054,0.010895883777239709,0.002421307506053269,0.024213075060532687,0.0,0.0,0.0,0.03268765133171913,0.0,0.018159806295399514,0.035108958837772396,0.035108958837772396,0.031476997578692496,0.03268765133171913,0.024213075060532687,0.03389830508474576,0.035108958837772396,0.035108958837772396,0.035108958837772396,0.01694915254237288,0.02784503631961259,0.024213075060532687,0.0,0.002421307506053269,0.035108958837772396,0.03026634382566586,0.035108958837772396,0.035108958837772396,0.018159806295399514,0.0,0.0,0.035108958837772396,0.014527845036319613,0.029055690072639227,0.029055690072639227
S11_D11 hbo,0.0,0.0,0.0,0.039908779931584946,0.02280501710376283,0.0,0.0,0.011402508551881414,0.03078677309007982,0.03078677309007982,0.002280501710376283,0.0,0.028506271379703536,0.02280501710376283,0.03078677309007982,0.029646522234891677,0.0,0.021664766248574687,0.010262257696693273,0.002280501710376283,0.02280501710376283,0.0,0.0,0.0,0.03078677309007982,0.0,0.01710376282782212,0.03420752565564424,0.04104903078677309,0.029646522234891677,0.0330672748004561,0.02280501710376283,0.0330672748004561,0.04104903078677309,0.039908779931584946,0.037628278221208664,0.01596351197263398,0.026225769669327253,0.02280501710376283,0.0,0.002280501710376283,0.04218928164196123,0.028506271379703536,0.0330672748004561,0.03420752565564424,0.01710376282782212,0.0,0.0,0.04218928164196123,0.013683010262257697,0.027366020524515394,0.027366020524515394
S11_D12 hbo,0.0,0.016216216216216217,0.0,0.03153153153153153,0.018018018018018018,0.0,0.0,0.009009009009009009,0.03423423423423423,0.024324324324324326,0.0018018018018018018,0.0,0.02252252252252252,0.018018018018018018,0.036036036036036036,0.03963963963963964,0.0,0.03333333333333333,0.008108108108108109,0.011711711711711712,0.03423423423423423,0.0,0.0,0.0,0.03063063063063063,0.0,0.013513513513513514,0.02702702702702703,0.04864864864864865,0.023423423423423424,0.026126126126126126,0.018018018018018018,0.026126126126126126,0.03333333333333333,0.047747747747747746,0.02972972972972973,0.012612612612612612,0.023423423423423424,0.018018018018018018,0.0,0.0018018018018018018,0.03333333333333333,0.02252252252252252,0.04054054054054054,0.043243243243243246,0.013513513513513514,0.012612612612612612,0.0,0.03333333333333333,0.010810810810810811,0.03783783783783784,0.03333333333333333
S11_D13 hbo,0.0,0.0,0.0,0.038506417736289385,0.023337222870478413,0.0,0.0,0.011668611435239206,0.03150525087514586,0.03150525087514586,0.002333722287047841,0.0,0.029171528588098017,0.023337222870478413,0.03150525087514586,0.030338389731621937,0.0,0.022170361726954493,0.010501750291715286,0.002333722287047841,0.023337222870478413,0.0,0.0,0.0,0.03150525087514586,0.0,0.01750291715285881,0.03500583430571762,0.038506417736289385,0.030338389731621937,0.03267211201866978,0.023337222870478413,0.0338389731621937,0.038506417736289385,0.038506417736289385,0.03733955659276546,0.01633605600933489,0.026837806301050177,0.023337222870478413,0.0,0.002333722287047841,0.038506417736289385,0.029171528588098017,0.0338389731621937,0.03500583430571762,0.01750291715285881,0.0,0.0,0.038506417736289385,0.014002333722287048,0.028004667444574097,0.028004667444574097
S12_D10 hbo,0.0,0.0,0.0,0.02280130293159609,0.02280130293159609,0.0,0.0,0.016286644951140065,0.02280130293159609,0.02280130293159609,0.003257328990228013,0.0,0.02280130293159609,0.02280130293159609,0.048859934853420196,0.05211726384364821,0.0,0.02280130293159609,0.014657980456026058,0.003257328990228013,0.02280130293159609,0.0,0.0,0.0,0.02280130293159609,0.0,0.02280130293159609,0.02280130293159609,0.02280130293159609,0.02280130293159609,0.02280130293159609,0.02280130293159609,0.02280130293159609,0.02280130293159609,0.02280130293159609,0.02280130293159609,0.06677524429967427,0.05374592833876222,0.048859934853420196,0.0,0.003257328990228013,0.02280130293159609,0.02280130293159609,0.02280130293159609,0.02280130293159609,0.03420195439739414,0.0,0.0,0.02280130293159609,0.019543973941368076,0.06514657980456026,0.02280130293159609
S12_D12 hbo,0.0,0.003393665158371041,0.0,0.026018099547511313,0.02262443438914027,0.0,0.0,0.011312217194570135,0.029411764705882353,0.026018099547511313,0.0022624434389140274,0.0,0.024886877828054297,0.02262443438914027,0.04751131221719457,0.049773755656108594,0.0,0.024886877828054297,0.010180995475113122,0.005656108597285068,0.026018099547511313,0.0,0.0,0.0,0.027149321266968326,0.0,0.016968325791855202,0.026018099547511313,0.029411764705882353,0.026018099547511313,0.026018099547511313,0.02262443438914027,0.026018099547511313,0.026018099547511313,0.029411764705882353,0.026018099547511313,0.03733031674208145,0.04751131221719457,0.04072398190045249,0.0,0.0022624434389140274,0.026018099547511313,0.026018099547511313,0.029411764705882353,0.029411764705882353,0.024886877828054297,0.003393665158371041,0.0,0.026018099547511313,0.013574660633484163,0.049773755656108594,0.029411764705882353
S12_D14 hbo,0.0,0.0,0.0,0.026350461133069828,0.026350461133069828,0.0,0.0,0.013175230566534914,0.026350461133069828,0.026350461133069828,0.002635046113306983,0.0,0.026350461133069828,0.026350461133069828,0.04743083003952569,0.04743083003952569,0.0,0.022397891963109356,0.011857707509881422,0.002635046113306983,0.026350461133069828,0.0,0.0,0.0,0.026350461133069828,0.0,0.019762845849802372,0.026350461133069828,0.026350461133069828,0.026350461133069828,0.026350461133069828,0.026350461133069828,0.026350461133069828,0.026350461133069828,0.026350461133069828,0.026350461133069828,0.039525691699604744,0.04743083003952569,0.04479578392621871,0.0,0.002635046113306983,0.026350461133069828,0.026350461133069828,0.026350461133069828,0.026350461133069828,0.028985507246376812,0.0,0.0,0.026350461133069828,0.015810276679841896,0.04743083003952569,0.026350461133069828
S13_D6 hbo,0.0,0.0,0.0,0.0,0.0,0.0,0.0,0.0,0.0,0.0,0.06857142857142857,0.14,0.08285714285714285,0.0,0.0,0.0,0.12571428571428572,0.0,0.0,0.0,0.0,0.0,0.0,0.12,0.0,0.0,0.0,0.0,0.0,0.0,0.0,0.0,0.0,0.0,0.0,0.0,0.0,0.0,0.0,0.13714285714285715,0.13428571428571429,0.0,0.08,0.0,0.0,0.0,0.0,0.11142857142857143,0.0,0.0,0.0,0.0
S13_D11 hbo,0.0,0.0,0.0,0.004796163069544364,0.004796163069544364,0.0,0.0,0.004796163069544364,0.004796163069544364,0.004796163069544364,0.05995203836930456,0.11510791366906475,0.07434052757793765,0.004796163069544364,0.004796163069544364,0.004796163069544364,0.10551558752997602,0.004796163069544364,0.004796163069544364,0.004796163069544364,0.004796163069544364,0.0,0.0,0.10071942446043165,0.004796163069544364,0.0,0.004796163069544364,0.004796163069544364,0.004796163069544364,0.004796163069544364,0.004796163069544364,0.004796163069544364,0.004796163069544364,0.004796163069544364,0.004796163069544364,0.004796163069544364,0.004796163069544364,0.004796163069544364,0.004796163069544364,0.1079136690647482,0.11510791366906475,0.004796163069544364,0.07194244604316546,0.004796163069544364,0.004796163069544364,0.004796163069544364,0.0,0.08633093525179857,0.004796163069544364,0.004796163069544364,0.004796163069544364,0.004796163069544364
S13_D13 hbo,0.0,0.0,0.0011210762331838565,0.03923766816143498,0.02242152466367713,0.0,0.0,0.011210762331838564,0.030269058295964126,0.030269058295964126,0.002242152466367713,0.0,0.028026905829596414,0.023542600896860985,0.030269058295964126,0.02914798206278027,0.0,0.021300448430493273,0.010089686098654708,0.002242152466367713,0.02242152466367713,0.0,0.0011210762331838565,0.0,0.030269058295964126,0.0011210762331838565,0.017937219730941704,0.033632286995515695,0.04035874439461883,0.030269058295964126,0.032511210762331835,0.02242152466367713,0.032511210762331835,0.04147982062780269,0.04147982062780269,0.03699551569506727,0.01569506726457399,0.0257847533632287,0.02242152466367713,0.0,0.002242152466367713,0.043721973094170405,0.028026905829596414,0.032511210762331835,0.033632286995515695,0.016816143497757848,0.0,0.0,0.04484304932735426,0.014573991031390135,0.026905829596412557,0.026905829596412557
S13_D15 hbo,0.0,0.0,0.0,0.025510204081632654,0.02040816326530612,0.0,0.0,0.01020408163265306,0.024489795918367346,0.025510204081632654,0.017346938775510204,0.02857142857142857,0.04387755102040816,0.02040816326530612,0.024489795918367346,0.024489795918367346,0.02857142857142857,0.018367346938775512,0.009183673469387756,0.0020408163265306124,0.02040816326530612,0.0,0.0,0.027551020408163266,0.025510204081632654,0.0,0.015306122448979591,0.025510204081632654,0.025510204081632654,0.024489795918367346,0.024489795918367346,0.02040816326530612,0.025510204081632654,0.025510204081632654,0.025510204081632654,0.025510204081632654,0.014285714285714285,0.02142857142857143,0.02040816326530612,0.02857142857142857,0.030612244897959183,0.025510204081632654,0.05204081632653061,0.025510204081632654,0.025510204081632654,0.015306122448979591,0.0,0.02040816326530612,0.025510204081632654,0.012244897959183673,0.024489795918367346,0.02346938775510204
S14_D12 hbo,0.0,0.015488867376573089,0.0,0.028073572120038724,0.01936108422071636,0.0,0.0,0.00968054211035818,0.03581800580832527,0.026137463697967087,0.001936108422071636,0.0,0.02420135527589545,0.01936108422071636,0.036786060019361085,0.04065827686350436,0.0,0.03388189738625363,0.008712487899322363,0.011616650532429816,0.03484995159728945,0.0,0.0,0.0,0.03291384317521781,0.0,0.01452081316553727,0.028073572120038724,0.04356243949661181,0.02516940948693127,0.02516940948693127,0.01936108422071636,0.026137463697967087,0.028073572120038724,0.04356243949661181,0.028073572120038724,0.013552758954501452,0.02516940948693127,0.01936108422071636,0.0,0.001936108422071636,0.028073572120038724,0.02420135527589545,0.041626331074540175,0.04259438528557599,0.01452081316553727,0.013552758954501452,0.0,0.028073572120038724,0.011616650532429816,0.03872216844143272,0.03581800580832527
S14_D13 hbo,0.0,0.023957409050576754,0.0,0.026619343389529725,0.01774622892635315,0.0,0.0,0.008873114463176575,0.03371783496007098,0.023957409050576754,0.001774622892635315,0.0,0.022182786157941437,0.01774622892635315,0.03637976929902396,0.04702750665483585,0.0,0.0417036379769299,0.007985803016858917,0.01419698314108252,0.0417036379769299,0.0,0.0,0.0,0.030168589174800354,0.0,0.013309671694764862,0.026619343389529725,0.049689440993788817,0.023070097604259095,0.023957409050576754,0.01774622892635315,0.024844720496894408,0.026619343389529725,0.04259094942324756,0.026619343389529725,0.012422360248447204,0.023070097604259095,0.01774622892635315,0.0,0.001774622892635315,0.026619343389529725,0.022182786157941437,0.03992901508429459,0.050576752440106475,0.013309671694764862,0.012422360248447204,0.0,0.026619343389529725,0.01064773735581189,0.03904170363797693,0.032830523513753325
S14_D14 hbo,0.0,0.0,0.0017605633802816902,0.02640845070422535,0.02640845070422535,0.0,0.0,0.017605633802816902,0.02640845070422535,0.02640845070422535,0.0035211267605633804,0.0,0.02640845070422535,0.028169014084507043,0.03873239436619718,0.03873239436619718,0.0,0.02464788732394366,0.01584507042253521,0.0035211267605633804,0.02640845070422535,0.0,0.0017605633802816902,0.0,0.02640845070422535,0.0017605633802816902,0.028169014084507043,0.02640845070422535,0.02640845070422535,0.028169014084507043,0.02640845070422535,0.02640845070422535,0.02640845070422535,0.02640845070422535,0.02640845070422535,0.02640845070422535,0.035211267605633804,0.03873239436619718,0.03873239436619718,0.0,0.0035211267605633804,0.02640845070422535,0.02640845070422535,0.02640845070422535,0.02640845070422535,0.035211267605633804,0.0,0.0,0.02640845070422535,0.022887323943661973,0.03873239436619718,0.02640845070422535
S14_D16 hbo,0.0,0.07,0.005,0.0,0.0,0.0,0.0,0.0,0.055,0.0,0.0,0.0,0.0,0.005,0.055,0.07,0.0,0.07,0.0,0.045,0.07,0.0,0.005,0.0,0.035,0.005,0.005,0.0,0.07,0.005,0.0,0.0,0.0,0.0,0.07,0.0,0.0,0.015,0.0,0.0,0.0,0.0,0.0,0.07,0.07,0.0,0.065,0.0,0.0,0.005,0.07,0.065
S15_D13 hbo,0.0,0.0,0.0,0.0,0.0,0.0,0.0,0.0,0.0,0.0,0.07717041800643087,0.13504823151125403,0.0932475884244373,0.0,0.0,0.0,0.11254019292604502,0.0,0.0,0.0,0.0,0.0,0.0,0.1157556270096463,0.0,0.0,0.0,0.0,0.0,0.0,0.0,0.0,0.0,0.0,0.0,0.0,0.0,0.0,0.0,0.13183279742765272,0.12218649517684887,0.0,0.0707395498392283,0.0,0.0,0.0,0.0,0.1414790996784566,0.0,0.0,0.0,0.0
S15_D15 hbo,0.0,0.0,0.0011248593925759281,0.03937007874015748,0.02249718785151856,0.0,0.0,0.01124859392575928,0.030371203599550055,0.030371203599550055,0.0022497187851518562,0.0,0.0281214848143982,0.023622047244094488,0.030371203599550055,0.02924634420697413,0.0,0.021372328458942633,0.010123734533183352,0.0022497187851518562,0.02249718785151856,0.0,0.0011248593925759281,0.0,0.030371203599550055,0.0011248593925759281,0.01799775028121485,0.03374578177727784,0.04049493813273341,0.030371203599550055,0.03262092238470191,0.02249718785151856,0.03262092238470191,0.04161979752530934,0.04049493813273341,0.03712035995500562,0.015748031496062992,0.025871766029246346,0.02249718785151856,0.0,0.0022497187851518562,0.04274465691788527,0.0281214848143982,0.03262092238470191,0.03374578177727784,0.01687289088863892,0.0,0.0,0.043869516310461196,0.014623172103487065,0.02699662542182227,0.02699662542182227
S15_D16 hbo,0.0,0.0,0.002347417840375587,0.028169014084507043,0.028169014084507043,0.0,0.0,0.023474178403755867,0.028169014084507043,0.028169014084507043,0.004694835680751174,0.0,0.028169014084507043,0.03051643192488263,0.028169014084507043,0.028169014084507043,0.0,0.028169014084507043,0.02112676056338028,0.004694835680751174,0.028169014084507043,0.0,0.002347417840375587,0.0,0.028169014084507043,0.002347417840375587,0.03051643192488263,0.028169014084507043,0.028169014084507043,0.03051643192488263,0.028169014084507043,0.028169014084507043,0.028169014084507043,0.028169014084507043,0.028169014084507043,0.028169014084507043,0.025821596244131457,0.028169014084507043,0.028169014084507043,0.0,0.004694835680751174,0.028169014084507043,0.028169014084507043,0.028169014084507043,0.028169014084507043,0.028169014084507043,0.0,0.0,0.028169014084507043,0.028169014084507043,0.028169014084507043,0.028169014084507043
S16_D14 hbo,0.0,0.016570008285004142,0.0,0.01988400994200497,0.016570008285004142,0.0,0.0,0.008285004142502071,0.043910521955260975,0.01988400994200497,0.0016570008285004142,0.0,0.01988400994200497,0.016570008285004142,0.04308202154101077,0.050538525269262634,0.0,0.048053024026512015,0.007456503728251864,0.010770505385252692,0.050538525269262634,0.0,0.0,0.0,0.02568351284175642,0.0,0.012427506213753107,0.01988400994200497,0.03645401822700911,0.019055509527754765,0.019055509527754765,0.016570008285004142,0.01988400994200497,0.01988400994200497,0.03396851698425849,0.01988400994200497,0.03231151615575808,0.0347970173985087,0.02899751449875725,0.0,0.0016570008285004142,0.01988400994200497,0.019055509527754765,0.033140016570008285,0.03645401822700911,0.018227009113504555,0.0115990057995029,0.0,0.01988400994200497,0.009942004971002486,0.07207953603976802,0.045567522783761395
S16_D16 hbo,0.0,0.012833168805528134,0.0,0.023692003948667325,0.019743336623889437,0.0,0.0,0.009871668311944718,0.049358341559723594,0.023692003948667325,0.0019743336623889436,0.0,0.023692003948667325,0.019743336623889437,0.03257650542941757,0.03652517275419546,0.0,0.050345508390918066,0.008884501480750246,0.008884501480750246,0.05231984205330701,0.0,0.0,0.0,0.028627838104639685,0.0,0.014807502467917079,0.023692003948667325,0.03652517275419546,0.023692003948667325,0.023692003948667325,0.019743336623889437,0.023692003948667325,0.023692003948667325,0.03652517275419546,0.023692003948667325,0.013820335636722606,0.023692003948667325,0.019743336623889437,0.0,0.0019743336623889436,0.023692003948667325,0.023692003948667325,0.035538005923000986,0.03652517275419546,0.014807502467917079,0.01085883514313919,0.0,0.023692003948667325,0.011846001974333662,0.054294175715695954,0.05330700888450148
