,S1_D1 hbo,S1_D3 hbo,S2_D1 hbo,S2_D2 hbo,S2_D4 hbo,S3_D1 hbo,S3_D3 hbo,S3_D4 hbo,S3_D5 hbo,S4_D2 hbo,S4_D4 hbo,S4_D6 hbo,S4_D11 hbo,S5_D3 hbo,S5_D5 hbo,S5_D7 hbo,S6_D4 hbo,S6_D5 hbo,S6_D6 hbo,S6_D8 hbo,S7_D5 hbo,S7_D7 hbo,S7_D8 hbo,S8_D6 hbo,S8_D8 hbo,S8_D15 hbo,S9_D2 hbo,S9_D9 hbo,S9_D11 hbo,S10_D9 hbo,S10_D10 hbo,S10_D12 hbo,S11_D9 hbo,S11_D11 hbo,S11_D12 hbo,S11_D13 hbo,S12_D10 hbo,S12_D12 hbo,S12_D14 hbo,S13_D6 hbo,S13_D11 hbo,S13_D13 hbo,S13_D15 hbo,S14_D12 hbo,S14_D13 hbo,S14_D14 hbo,S14_D16 hbo,S15_D13 hbo,S15_D15 hbo,S15_D16 hbo,S16_D14 hbo,S16_D16 hbo
S1_D1 hbo,0.0,0.0,0.0,0.0,0.0,0.0,0.0,0.0,0.0,0.0,0.0,0.0,0.0,0.0,0.0,0.0,0.0,0.0,0.0,0.0,0.0,0.0,0.0,0.0,0.0,0.0,0.0,0.0,0.0,0.0,0.0,0.0,0.0,0.0,0.0,0.0,0.0,0.0,0.0,0.0,0.0,0.0,0.0,0.0,0.0,0.0,0.0,0.0,0.0,0.0,0.0,0.0
S1_D3 hbo,0.0,0.029411764705882353,0.022058823529411766,0.022058823529411766,0.0,0.0,0.03308823529411765,0.025735294117647058,0.03308823529411765,0.03308823529411765,0.014705882352941176,0.0,0.03308823529411765,0.03308823529411765,0.03308823529411765,0.03308823529411765,0.022058823529411766,0.03308823529411765,0.03308823529411765,0.03308823529411765,0.029411764705882353,0.03308823529411765,0.0,0.01838235294117647,0.0,0.014705882352941176,0.029411764705882353,0.0,0.03308823529411765,0.011029411764705883,0.0,0.03308823529411765,0.03308823529411765,0.0,0.0,0.0,0.0,0.03308823529411765,0.0,0.0,0.03308823529411765,0.03308823529411765,0.0,0.0,0.03308823529411765,0.03308823529411765,0.03308823529411765,0.03308823529411765,0.03308823529411765,0.03308823529411765,0.0,0.0
S2_D1 hbo,0.0,0.0319634703196347,0.0273972602739726,0.0273972602739726,0.0,0.0,0.0319634703196347,0.0319634703196347,0.0319634703196347,0.0319634703196347,0.0182648401826484,0.0,0.0319634703196347,0.0319634703196347,0.0319634703196347,0.0319634703196347,0.0273972602739726,0.0319634703196347,0.0319634703196347,0.0319634703196347,0.0319634703196347,0.0319634703196347,0.0,0.0136986301369863,0.0,0.0091324200913242,0.0319634703196347,0.0,0.0319634703196347,0.0136986301369863,0.0,0.0319634703196347,0.0319634703196347,0.0,0.0,0.0,0.0,0.0319634703196347,0.0,0.0,0.0319634703196347,0.0319634703196347,0.0,0.0,0.0319634703196347,0.0319634703196347,0.0319634703196347,0.0319634703196347,0.0319634703196347,0.0319634703196347,0.0,0.0
S2_D2 hbo,0.0,0.0319634703196347,0.0273972602739726,0.0273972602739726,0.0,0.0,0.0319634703196347,0.0319634703196347,0.0319634703196347,0.0319634703196347,0.0182648401826484,0.0,0.0319634703196347,0.0319634703196347,0.0319634703196347,0.0319634703196347,0.0273972602739726,0.0319634703196347,0.0319634703196347,0.0319634703196347,0.0319634703196347,0.0319634703196347,0.0,0.0136986301369863,0.0,0.0091324200913242,0.0319634703196347,0.0,0.0319634703196347,0.0136986301369863,0.0,0.0319634703196347,0.0319634703196347,0.0,0.0,0.0,0.0,0.0319634703196347,0.0,0.0,0.0319634703196347,0.0319634703196347,0.0,0.0,0.0319634703196347,0.0319634703196347,0.0319634703196347,0.0319634703196347,0.0319634703196347,0.0319634703196347,0.0,0.0
S2_D4 hbo,0.0,0.0,0.0,0.0,0.0,0.0,0.0,0.0,0.0,0.0,0.0,0.0,0.0,0.0,0.0,0.0,0.0,0.0,0.0,0.0,0.0,0.0,0.0,0.0,0.0,0.0,0.0,0.0,0.0,0.0,0.0,0.0,0.0,0.0,0.0,0.0,0.0,0.0,0.0,0.0,0.0,0.0,0.0,0.0,0.0,0.0,0.0,0.0,0.0,0.0,0.0,0.0
S3_D1 hbo,0.0,0.0,0.0,0.0,0.0,0.0,0.0,0.0,0.0,0.0,0.0,0.0,0.0,0.0,0.0,0.0,0.0,0.0,0.0,0.0,0.0,0.0,0.0,0.0,0.0,0.0,0.0,0.0,0.0,0.0,0.0,0.0,0.0,0.0,0.0,0.0,0.0,0.0,0.0,0.0,0.0,0.0,0.0,0.0,0.0,0.0,0.0,0.0,0.0,0.0,0.0,0.0
S3_D3 hbo,0.0,0.025236593059936908,0.01892744479495268,0.01892744479495268,0.0,0.0,0.031545741324921134,0.022082018927444796,0.03470031545741325,0.03470031545741325,0.012618296529968454,0.0,0.03470031545741325,0.03470031545741325,0.03470031545741325,0.03470031545741325,0.01892744479495268,0.03470031545741325,0.031545741324921134,0.03470031545741325,0.025236593059936908,0.03470031545741325,0.0,0.022082018927444796,0.0,0.01892744479495268,0.025236593059936908,0.0,0.03470031545741325,0.00946372239747634,0.0,0.03470031545741325,0.03470031545741325,0.0,0.0,0.0,0.0,0.03470031545741325,0.0,0.0,0.03470031545741325,0.03470031545741325,0.0,0.0,0.03470031545741325,0.031545741324921134,0.03470031545741325,0.03470031545741325,0.028391167192429023,0.03470031545741325,0.0,0.0
S3_D4 hbo,0.0,0.032388663967611336,0.024291497975708502,0.024291497975708502,0.0,0.0,0.032388663967611336,0.02834008097165992,0.032388663967611336,0.032388663967611336,0.016194331983805668,0.0,0.032388663967611336,0.032388663967611336,0.032388663967611336,0.032388663967611336,0.024291497975708502,0.032388663967611336,0.032388663967611336,0.032388663967611336,0.032388663967611336,0.032388663967611336,0.0,0.016194331983805668,0.0,0.012145748987854251,0.032388663967611336,0.0,0.032388663967611336,0.012145748987854251,0.0,0.032388663967611336,0.032388663967611336,0.0,0.0,0.0,0.0,0.032388663967611336,0.0,0.0,0.032388663967611336,0.032388663967611336,0.0,0.0,0.032388663967611336,0.032388663967611336,0.032388663967611336,0.032388663967611336,0.032388663967611336,0.032388663967611336,0.0,0.0
S3_D5 hbo,0.0,0.023529411764705882,0.01764705882352941,0.01764705882352941,0.0,0.0,0.029411764705882353,0.020588235294117647,0.03529411764705882,0.03529411764705882,0.011764705882352941,0.0,0.03823529411764706,0.03529411764705882,0.03235294117647059,0.03823529411764706,0.01764705882352941,0.03235294117647059,0.029411764705882353,0.03823529411764706,0.023529411764705882,0.03823529411764706,0.0,0.020588235294117647,0.0,0.01764705882352941,0.023529411764705882,0.0,0.03823529411764706,0.008823529411764706,0.0,0.03235294117647059,0.03823529411764706,0.0,0.0,0.0,0.0,0.03529411764705882,0.0,0.0,0.03823529411764706,0.03235294117647059,0.0,0.0,0.03823529411764706,0.029411764705882353,0.03235294117647059,0.03823529411764706,0.026470588235294117,0.03529411764705882,0.0,0.0
S4_D2 hbo,0.0,0.023529411764705882,0.01764705882352941,0.01764705882352941,0.0,0.0,0.029411764705882353,0.020588235294117647,0.03529411764705882,0.03529411764705882,0.011764705882352941,0.0,0.03823529411764706,0.03529411764705882,0.03235294117647059,0.03823529411764706,0.01764705882352941,0.03235294117647059,0.029411764705882353,0.03823529411764706,0.023529411764705882,0.03823529411764706,0.0,0.020588235294117647,0.0,0.01764705882352941,0.023529411764705882,0.0,0.03823529411764706,0.008823529411764706,0.0,0.03235294117647059,0.03823529411764706,0.0,0.0,0.0,0.0,0.03529411764705882,0.0,0.0,0.03823529411764706,0.03235294117647059,0.0,0.0,0.03823529411764706,0.029411764705882353,0.03235294117647059,0.03823529411764706,0.026470588235294117,0.03529411764705882,0.0,0.0
S4_D4 hbo,0.0,0.03164556962025317,0.03164556962025317,0.03164556962025317,0.0,0.0,0.03164556962025317,0.03164556962025317,0.03164556962025317,0.03164556962025317,0.02531645569620253,0.0,0.03164556962025317,0.03164556962025317,0.03164556962025317,0.03164556962025317,0.03164556962025317,0.03164556962025317,0.03164556962025317,0.03164556962025317,0.03164556962025317,0.03164556962025317,0.0,0.006329113924050633,0.0,0.0,0.03164556962025317,0.0,0.03164556962025317,0.0189873417721519,0.0,0.03164556962025317,0.03164556962025317,0.0,0.0,0.0,0.0,0.03164556962025317,0.0,0.0,0.03164556962025317,0.03164556962025317,0.0,0.0,0.03164556962025317,0.03164556962025317,0.03164556962025317,0.03164556962025317,0.03164556962025317,0.03164556962025317,0.0,0.0
S4_D6 hbo,0.0,0.0,0.0,0.0,0.0,0.0,0.0,0.0,0.0,0.0,0.0,0.0,0.0,0.0,0.0,0.0,0.0,0.0,0.0,0.0,0.0,0.0,0.0,0.0,0.0,0.0,0.0,0.0,0.0,0.0,0.0,0.0,0.0,0.0,0.0,0.0,0.0,0.0,0.0,0.0,0.0,0.0,0.0,0.0,0.0,0.0,0.0,0.0,0.0,0.0,0.0,0.0
S4_D11 hbo,0.0,0.022408963585434174,0.01680672268907563,0.01680672268907563,0.0,0.0,0.028011204481792718,0.0196078431372549,0.03361344537815126,0.03361344537815126,0.011204481792717087,0.0,0.04201680672268908,0.03361344537815126,0.03081232492997199,0.036414565826330535,0.01680672268907563,0.03081232492997199,0.028011204481792718,0.04481792717086835,0.022408963585434174,0.036414565826330535,0.0,0.0196078431372549,0.0,0.01680672268907563,0.022408963585434174,0.0,0.04481792717086835,0.008403361344537815,0.0,0.03081232492997199,0.04481792717086835,0.0,0.0,0.0,0.0,0.03361344537815126,0.0,0.0,0.04481792717086835,0.03081232492997199,0.0,0.0,0.036414565826330535,0.028011204481792718,0.03081232492997199,0.04481792717086835,0.025210084033613446,0.03361344537815126,0.0,0.0
S5_D3 hbo,0.0,0.023529411764705882,0.01764705882352941,0.01764705882352941,0.0,0.0,0.029411764705882353,0.020588235294117647,0.03529411764705882,0.03529411764705882,0.011764705882352941,0.0,0.03823529411764706,0.03529411764705882,0.03235294117647059,0.03823529411764706,0.01764705882352941,0.03235294117647059,0.029411764705882353,0.03823529411764706,0.023529411764705882,0.03823529411764706,0.0,0.020588235294117647,0.0,0.01764705882352941,0.023529411764705882,0.0,0.03823529411764706,0.008823529411764706,0.0,0.03235294117647059,0.03823529411764706,0.0,0.0,0.0,0.0,0.03529411764705882,0.0,0.0,0.03823529411764706,0.03235294117647059,0.0,0.0,0.03823529411764706,0.029411764705882353,0.03235294117647059,0.03823529411764706,0.026470588235294117,0.03529411764705882,0.0,0.0
S5_D5 hbo,0.0,0.02416918429003021,0.01812688821752266,0.01812688821752266,0.0,0.0,0.030211480362537766,0.021148036253776436,0.03625377643504532,0.03625377643504532,0.012084592145015106,0.0,0.03625377643504532,0.03625377643504532,0.03323262839879154,0.03625377643504532,0.01812688821752266,0.03323262839879154,0.030211480362537766,0.03625377643504532,0.02416918429003021,0.03625377643504532,0.0,0.021148036253776436,0.0,0.01812688821752266,0.02416918429003021,0.0,0.03625377643504532,0.00906344410876133,0.0,0.03323262839879154,0.03625377643504532,0.0,0.0,0.0,0.0,0.03625377643504532,0.0,0.0,0.03625377643504532,0.03323262839879154,0.0,0.0,0.03625377643504532,0.030211480362537766,0.03323262839879154,0.03625377643504532,0.027190332326283987,0.03625377643504532,0.0,0.0
S5_D7 hbo,0.0,0.023121387283236993,0.017341040462427744,0.017341040462427744,0.0,0.0,0.028901734104046242,0.02023121387283237,0.03468208092485549,0.03468208092485549,0.011560693641618497,0.0,0.04046242774566474,0.03468208092485549,0.031791907514450865,0.03757225433526012,0.017341040462427744,0.031791907514450865,0.028901734104046242,0.04046242774566474,0.023121387283236993,0.03757225433526012,0.0,0.02023121387283237,0.0,0.017341040462427744,0.023121387283236993,0.0,0.04046242774566474,0.008670520231213872,0.0,0.031791907514450865,0.04046242774566474,0.0,0.0,0.0,0.0,0.03468208092485549,0.0,0.0,0.04046242774566474,0.031791907514450865,0.0,0.0,0.03757225433526012,0.028901734104046242,0.031791907514450865,0.04046242774566474,0.02601156069364162,0.03468208092485549,0.0,0.0
S6_D4 hbo,0.0,0.0319634703196347,0.0273972602739726,0.0273972602739726,0.0,0.0,0.0319634703196347,0.0319634703196347,0.0319634703196347,0.0319634703196347,0.0182648401826484,0.0,0.0319634703196347,0.0319634703196347,0.0319634703196347,0.0319634703196347,0.0273972602739726,0.0319634703196347,0.0319634703196347,0.0319634703196347,0.0319634703196347,0.0319634703196347,0.0,0.0136986301369863,0.0,0.0091324200913242,0.0319634703196347,0.0,0.0319634703196347,0.0136986301369863,0.0,0.0319634703196347,0.0319634703196347,0.0,0.0,0.0,0.0,0.0319634703196347,0.0,0.0,0.0319634703196347,0.0319634703196347,0.0,0.0,0.0319634703196347,0.0319634703196347,0.0319634703196347,0.0319634703196347,0.0319634703196347,0.0319634703196347,0.0,0.0
S6_D5 hbo,0.0,0.02416918429003021,0.01812688821752266,0.01812688821752266,0.0,0.0,0.030211480362537766,0.021148036253776436,0.03625377643504532,0.03625377643504532,0.012084592145015106,0.0,0.03625377643504532,0.03625377643504532,0.03323262839879154,0.03625377643504532,0.01812688821752266,0.03323262839879154,0.030211480362537766,0.03625377643504532,0.02416918429003021,0.03625377643504532,0.0,0.021148036253776436,0.0,0.01812688821752266,0.02416918429003021,0.0,0.03625377643504532,0.00906344410876133,0.0,0.03323262839879154,0.03625377643504532,0.0,0.0,0.0,0.0,0.03625377643504532,0.0,0.0,0.03625377643504532,0.03323262839879154,0.0,0.0,0.03625377643504532,0.030211480362537766,0.03323262839879154,0.03625377643504532,0.027190332326283987,0.03625377643504532,0.0,0.0
S6_D6 hbo,0.0,0.025236593059936908,0.01892744479495268,0.01892744479495268,0.0,0.0,0.031545741324921134,0.022082018927444796,0.03470031545741325,0.03470031545741325,0.012618296529968454,0.0,0.03470031545741325,0.03470031545741325,0.03470031545741325,0.03470031545741325,0.01892744479495268,0.03470031545741325,0.031545741324921134,0.03470031545741325,0.025236593059936908,0.03470031545741325,0.0,0.022082018927444796,0.0,0.01892744479495268,0.025236593059936908,0.0,0.03470031545741325,0.00946372239747634,0.0,0.03470031545741325,0.03470031545741325,0.0,0.0,0.0,0.0,0.03470031545741325,0.0,0.0,0.03470031545741325,0.03470031545741325,0.0,0.0,0.03470031545741325,0.031545741324921134,0.03470031545741325,0.03470031545741325,0.028391167192429023,0.03470031545741325,0.0,0.0
S6_D8 hbo,0.0,0.021917808219178082,0.01643835616438356,0.01643835616438356,0.0,0.0,0.0273972602739726,0.019178082191780823,0.03287671232876712,0.03287671232876712,0.010958904109589041,0.0,0.0410958904109589,0.03287671232876712,0.030136986301369864,0.03561643835616438,0.01643835616438356,0.030136986301369864,0.0273972602739726,0.04657534246575343,0.021917808219178082,0.03561643835616438,0.0,0.019178082191780823,0.0,0.01643835616438356,0.021917808219178082,0.0,0.049315068493150684,0.00821917808219178,0.0,0.030136986301369864,0.04657534246575343,0.0,0.0,0.0,0.0,0.03287671232876712,0.0,0.0,0.049315068493150684,0.030136986301369864,0.0,0.0,0.03561643835616438,0.0273972602739726,0.030136986301369864,0.049315068493150684,0.024657534246575342,0.03287671232876712,0.0,0.0
S7_D5 hbo,0.0,0.029411764705882353,0.022058823529411766,0.022058823529411766,0.0,0.0,0.03308823529411765,0.025735294117647058,0.03308823529411765,0.03308823529411765,0.014705882352941176,0.0,0.03308823529411765,0.03308823529411765,0.03308823529411765,0.03308823529411765,0.022058823529411766,0.03308823529411765,0.03308823529411765,0.03308823529411765,0.029411764705882353,0.03308823529411765,0.0,0.01838235294117647,0.0,0.014705882352941176,0.029411764705882353,0.0,0.03308823529411765,0.011029411764705883,0.0,0.03308823529411765,0.03308823529411765,0.0,0.0,0.0,0.0,0.03308823529411765,0.0,0.0,0.03308823529411765,0.03308823529411765,0.0,0.0,0.03308823529411765,0.03308823529411765,0.03308823529411765,0.03308823529411765,0.03308823529411765,0.03308823529411765,0.0,0.0
S7_D7 hbo,0.0,0.023121387283236993,0.017341040462427744,0.017341040462427744,0.0,0.0,0.028901734104046242,0.02023121387283237,0.03468208092485549,0.03468208092485549,0.011560693641618497,0.0,0.04046242774566474,0.03468208092485549,0.031791907514450865,0.03757225433526012,0.017341040462427744,0.031791907514450865,0.028901734104046242,0.04046242774566474,0.023121387283236993,0.03757225433526012,0.0,0.02023121387283237,0.0,0.017341040462427744,0.023121387283236993,0.0,0.04046242774566474,0.008670520231213872,0.0,0.031791907514450865,0.04046242774566474,0.0,0.0,0.0,0.0,0.03468208092485549,0.0,0.0,0.04046242774566474,0.031791907514450865,0.0,0.0,0.03757225433526012,0.028901734104046242,0.031791907514450865,0.04046242774566474,0.02601156069364162,0.03468208092485549,0.0,0.0
S7_D8 hbo,0.0,0.0,0.0,0.0,0.0,0.0,0.0,0.0,0.0,0.0,0.0,0.0,0.0,0.0,0.0,0.0,0.0,0.0,0.0,0.0,0.0,0.0,0.0,0.0,0.0,0.0,0.0,0.0,0.0,0.0,0.0,0.0,0.0,0.0,0.0,0.0,0.0,0.0,0.0,0.0,0.0,0.0,0.0,0.0,0.0,0.0,0.0,0.0,0.0,0.0,0.0,0.0
S8_D6 hbo,0.0,0.017341040462427744,0.005780346820809248,0.005780346820809248,0.0,0.0,0.028901734104046242,0.011560693641618497,0.04046242774566474,0.04046242774566474,0.0,0.0,0.04046242774566474,0.04046242774566474,0.03468208092485549,0.04046242774566474,0.005780346820809248,0.03468208092485549,0.028901734104046242,0.04046242774566474,0.017341040462427744,0.04046242774566474,0.0,0.03468208092485549,0.0,0.03468208092485549,0.017341040462427744,0.0,0.04046242774566474,0.0,0.0,0.03468208092485549,0.04046242774566474,0.0,0.0,0.0,0.0,0.04046242774566474,0.0,0.0,0.04046242774566474,0.03468208092485549,0.0,0.0,0.04046242774566474,0.028901734104046242,0.03468208092485549,0.04046242774566474,0.023121387283236993,0.04046242774566474,0.0,0.0
S8_D8 hbo,0.0,0.0,0.0,0.0,0.0,0.0,0.0,0.0,0.0,0.0,0.0,0.0,0.0,0.0,0.0,0.0,0.0,0.0,0.0,0.0,0.0,0.0,0.0,0.0,0.0,0.0,0.0,0.0,0.0,0.0,0.0,0.0,0.0,0.0,0.0,0.0,0.0,0.0,0.0,0.0,0.0,0.0,0.0,0.0,0.0,0.0,0.0,0.0,0.0,0.0,0.0,0.0
S8_D15 hbo,0.0,0.014184397163120567,0.0,0.0,0.0,0.0,0.028368794326241134,0.0070921985815602835,0.0425531914893617,0.0425531914893617,0.0,0.0,0.0425531914893617,0.0425531914893617,0.03546099290780142,0.0425531914893617,0.0,0.03546099290780142,0.028368794326241134,0.0425531914893617,0.014184397163120567,0.0425531914893617,0.0,0.03546099290780142,0.0,0.03546099290780142,0.014184397163120567,0.0,0.0425531914893617,0.0,0.0,0.03546099290780142,0.0425531914893617,0.0,0.0,0.0,0.0,0.0425531914893617,0.0,0.0,0.0425531914893617,0.03546099290780142,0.0,0.0,0.0425531914893617,0.028368794326241134,0.03546099290780142,0.0425531914893617,0.02127659574468085,0.0425531914893617,0.0,0.0
S9_D2 hbo,0.0,0.029411764705882353,0.022058823529411766,0.022058823529411766,0.0,0.0,0.03308823529411765,0.025735294117647058,0.03308823529411765,0.03308823529411765,0.014705882352941176,0.0,0.03308823529411765,0.03308823529411765,0.03308823529411765,0.03308823529411765,0.022058823529411766,0.03308823529411765,0.03308823529411765,0.03308823529411765,0.029411764705882353,0.03308823529411765,0.0,0.01838235294117647,0.0,0.014705882352941176,0.029411764705882353,0.0,0.03308823529411765,0.011029411764705883,0.0,0.03308823529411765,0.03308823529411765,0.0,0.0,0.0,0.0,0.03308823529411765,0.0,0.0,0.03308823529411765,0.03308823529411765,0.0,0.0,0.03308823529411765,0.03308823529411765,0.03308823529411765,0.03308823529411765,0.03308823529411765,0.03308823529411765,0.0,0.0
S9_D9 hbo,0.0,0.0,0.0,0.0,0.0,0.0,0.0,0.0,0.0,0.0,0.0,0.0,0.0,0.0,0.0,0.0,0.0,0.0,0.0,0.0,0.0,0.0,0.0,0.0,0.0,0.0,0.0,0.0,0.0,0.0,0.0,0.0,0.0,0.0,0.0,0.0,0.0,0.0,0.0,0.0,0.0,0.0,0.0,0.0,0.0,0.0,0.0,0.0,0.0,0.0,0.0,0.0
S9_D11 hbo,0.0,0.02185792349726776,0.01639344262295082,0.01639344262295082,0.0,0.0,0.0273224043715847,0.01912568306010929,0.03278688524590164,0.03278688524590164,0.01092896174863388,0.0,0.040983606557377046,0.03278688524590164,0.030054644808743168,0.03551912568306011,0.01639344262295082,0.030054644808743168,0.0273224043715847,0.04644808743169399,0.02185792349726776,0.03551912568306011,0.0,0.01912568306010929,0.0,0.01639344262295082,0.02185792349726776,0.0,0.04918032786885246,0.00819672131147541,0.0,0.030054644808743168,0.04644808743169399,0.0,0.0,0.0,0.0,0.03278688524590164,0.0,0.0,0.05191256830601093,0.030054644808743168,0.0,0.0,0.03551912568306011,0.0273224043715847,0.030054644808743168,0.04918032786885246,0.02459016393442623,0.03278688524590164,0.0,0.0
S10_D9 hbo,0.0,0.031496062992125984,0.031496062992125984,0.031496062992125984,0.0,0.0,0.031496062992125984,0.031496062992125984,0.031496062992125984,0.031496062992125984,0.031496062992125984,0.0,0.031496062992125984,0.031496062992125984,0.031496062992125984,0.031496062992125984,0.031496062992125984,0.031496062992125984,0.031496062992125984,0.031496062992125984,0.031496062992125984,0.031496062992125984,0.0,0.0,0.0,0.0,0.031496062992125984,0.0,0.031496062992125984,0.023622047244094488,0.0,0.031496062992125984,0.031496062992125984,0.0,0.0,0.0,0.0,0.031496062992125984,0.0,0.0,0.031496062992125984,0.031496062992125984,0.0,0.0,0.031496062992125984,0.031496062992125984,0.031496062992125984,0.031496062992125984,0.031496062992125984,0.031496062992125984,0.0,0.0
S10_D10 hbo,0.0,0.0,0.0,0.0,0.0,0.0,0.0,0.0,0.0,0.0,0.0,0.0,0.0,0.0,0.0,0.0,0.0,0.0,0.0,0.0,0.0,0.0,0.0,0.0,0.0,0.0,0.0,0.0,0.0,0.0,0.0,0.0,0.0,0.0,0.0,0.0,0.0,0.0,0.0,0.0,0.0,0.0,0.0,0.0,0.0,0.0,0.0,0.0,0.0,0.0,0.0,0.0
S10_D12 hbo,0.0,0.02416918429003021,0.01812688821752266,0.01812688821752266,0.0,0.0,0.030211480362537766,0.021148036253776436,0.03625377643504532,0.03625377643504532,0.012084592145015106,0.0,0.03625377643504532,0.03625377643504532,0.03323262839879154,0.03625377643504532,0.01812688821752266,0.03323262839879154,0.030211480362537766,0.03625377643504532,0.02416918429003021,0.03625377643504532,0.0,0.021148036253776436,0.0,0.01812688821752266,0.02416918429003021,0.0,0.03625377643504532,0.00906344410876133,0.0,0.03323262839879154,0.03625377643504532,0.0,0.0,0.0,0.0,0.03625377643504532,0.0,0.0,0.03625377643504532,0.03323262839879154,0.0,0.0,0.03625377643504532,0.030211480362537766,0.03323262839879154,0.03625377643504532,0.027190332326283987,0.03625377643504532,0.0,0.0
S11_D9 hbo,0.0,0.021917808219178082,0.01643835616438356,0.01643835616438356,0.0,0.0,0.0273972602739726,0.019178082191780823,0.03287671232876712,0.03287671232876712,0.010958904109589041,0.0,0.0410958904109589,0.03287671232876712,0.030136986301369864,0.03561643835616438,0.01643835616438356,0.030136986301369864,0.0273972602739726,0.04657534246575343,0.021917808219178082,0.03561643835616438,0.0,0.019178082191780823,0.0,0.01643835616438356,0.021917808219178082,0.0,0.049315068493150684,0.00821917808219178,0.0,0.030136986301369864,0.04657534246575343,0.0,0.0,0.0,0.0,0.03287671232876712,0.0,0.0,0.049315068493150684,0.030136986301369864,0.0,0.0,0.03561643835616438,0.0273972602739726,0.030136986301369864,0.049315068493150684,0.024657534246575342,0.03287671232876712,0.0,0.0
S11_D11 hbo,0.0,0.0,0.0,0.0,0.0,0.0,0.0,0.0,0.0,0.0,0.0,0.0,0.0,0.0,0.0,0.0,0.0,0.0,0.0,0.0,0.0,0.0,0.0,0.0,0.0,0.0,0.0,0.0,0.0,0.0,0.0,0.0,0.0,0.0,0.0,0.0,0.0,0.0,0.0,0.0,0.0,0.0,0.0,0.0,0.0,0.0,0.0,0.0,0.0,0.0,0.0,0.0
S11_D12 hbo,0.0,0.0,0.0,0.0,0.0,0.0,0.0,0.0,0.0,0.0,0.0,0.0,0.0,0.0,0.0,0.0,0.0,0.0,0.0,0.0,0.0,0.0,0.0,0.0,0.0,0.0,0.0,0.0,0.0,0.0,0.0,0.0,0.0,0.0,0.0,0.0,0.0,0.0,0.0,0.0,0.0,0.0,0.0,0.0,0.0,0.0,0.0,0.0,0.0,0.0,0.0,0.0
S11_D13 hbo,0.0,0.0,0.0,0.0,0.0,0.0,0.0,0.0,0.0,0.0,0.0,0.0,0.0,0.0,0.0,0.0,0.0,0.0,0.0,0.0,0.0,0.0,0.0,0.0,0.0,0.0,0.0,0.0,0.0,0.0,0.0,0.0,0.0,0.0,0.0,0.0,0.0,0.0,0.0,0.0,0.0,0.0,0.0,0.0,0.0,0.0,0.0,0.0,0.0,0.0,0.0,0.0
S12_D10 hbo,0.0,0.0,0.0,0.0,0.0,0.0,0.0,0.0,0.0,0.0,0.0,0.0,0.0,0.0,0.0,0.0,0.0,0.0,0.0,0.0,0.0,0.0,0.0,0.0,0.0,0.0,0.0,0.0,0.0,0.0,0.0,0.0,0.0,0.0,0.0,0.0,0.0,0.0,0.0,0.0,0.0,0.0,0.0,0.0,0.0,0.0,0.0,0.0,0.0,0.0,0.0,0.0
S12_D12 hbo,0.0,0.023529411764705882,0.01764705882352941,0.01764705882352941,0.0,0.0,0.029411764705882353,0.020588235294117647,0.03529411764705882,0.03529411764705882,0.011764705882352941,0.0,0.03823529411764706,0.03529411764705882,0.03235294117647059,0.03823529411764706,0.01764705882352941,0.03235294117647059,0.029411764705882353,0.03823529411764706,0.023529411764705882,0.03823529411764706,0.0,0.020588235294117647,0.0,0.01764705882352941,0.023529411764705882,0.0,0.03823529411764706,0.008823529411764706,0.0,0.03235294117647059,0.03823529411764706,0.0,0.0,0.0,0.0,0.03529411764705882,0.0,0.0,0.03823529411764706,0.03235294117647059,0.0,0.0,0.03823529411764706,0.029411764705882353,0.03235294117647059,0.03823529411764706,0.026470588235294117,0.03529411764705882,0.0,0.0
S12_D14 hbo,0.0,0.0,0.0,0.0,0.0,0.0,0.0,0.0,0.0,0.0,0.0,0.0,0.0,0.0,0.0,0.0,0.0,0.0,0.0,0.0,0.0,0.0,0.0,0.0,0.0,0.0,0.0,0.0,0.0,0.0,0.0,0.0,0.0,0.0,0.0,0.0,0.0,0.0,0.0,0.0,0.0,0.0,0.0,0.0,0.0,0.0,0.0,0.0,0.0,0.0,0.0,0.0
S13_D6 hbo,0.0,0.0,0.0,0.0,0.0,0.0,0.0,0.0,0.0,0.0,0.0,0.0,0.0,0.0,0.0,0.0,0.0,0.0,0.0,0.0,0.0,0.0,0.0,0.0,0.0,0.0,0.0,0.0,0.0,0.0,0.0,0.0,0.0,0.0,0.0,0.0,0.0,0.0,0.0,0.0,0.0,0.0,0.0,0.0,0.0,0.0,0.0,0.0,0.0,0.0,0.0,0.0
S13_D11 hbo,0.0,0.02185792349726776,0.01639344262295082,0.01639344262295082,0.0,0.0,0.0273224043715847,0.01912568306010929,0.03278688524590164,0.03278688524590164,0.01092896174863388,0.0,0.040983606557377046,0.03278688524590164,0.030054644808743168,0.03551912568306011,0.01639344262295082,0.030054644808743168,0.0273224043715847,0.04644808743169399,0.02185792349726776,0.03551912568306011,0.0,0.01912568306010929,0.0,0.01639344262295082,0.02185792349726776,0.0,0.04918032786885246,0.00819672131147541,0.0,0.030054644808743168,0.04644808743169399,0.0,0.0,0.0,0.0,0.03278688524590164,0.0,0.0,0.05191256830601093,0.030054644808743168,0.0,0.0,0.03551912568306011,0.0273224043715847,0.030054644808743168,0.04918032786885246,0.02459016393442623,0.03278688524590164,0.0,0.0
S13_D13 hbo,0.0,0.02416918429003021,0.01812688821752266,0.01812688821752266,0.0,0.0,0.030211480362537766,0.021148036253776436,0.03625377643504532,0.03625377643504532,0.012084592145015106,0.0,0.03625377643504532,0.03625377643504532,0.03323262839879154,0.03625377643504532,0.01812688821752266,0.03323262839879154,0.030211480362537766,0.03625377643504532,0.02416918429003021,0.03625377643504532,0.0,0.021148036253776436,0.0,0.01812688821752266,0.02416918429003021,0.0,0.03625377643504532,0.00906344410876133,0.0,0.03323262839879154,0.03625377643504532,0.0,0.0,0.0,0.0,0.03625377643504532,0.0,0.0,0.03625377643504532,0.03323262839879154,0.0,0.0,0.03625377643504532,0.030211480362537766,0.03323262839879154,0.03625377643504532,0.027190332326283987,0.03625377643504532,0.0,0.0
S13_D15 hbo,0.0,0.0,0.0,0.0,0.0,0.0,0.0,0.0,0.0,0.0,0.0,0.0,0.0,0.0,0.0,0.0,0.0,0.0,0.0,0.0,0.0,0.0,0.0,0.0,0.0,0.0,0.0,0.0,0.0,0.0,0.0,0.0,0.0,0.0,0.0,0.0,0.0,0.0,0.0,0.0,0.0,0.0,0.0,0.0,0.0,0.0,0.0,0.0,0.0,0.0,0.0,0.0
S14_D12 hbo,0.0,0.0,0.0,0.0,0.0,0.0,0.0,0.0,0.0,0.0,0.0,0.0,0.0,0.0,0.0,0.0,0.0,0.0,0.0,0.0,0.0,0.0,0.0,0.0,0.0,0.0,0.0,0.0,0.0,0.0,0.0,0.0,0.0,0.0,0.0,0.0,0.0,0.0,0.0,0.0,0.0,0.0,0.0,0.0,0.0,0.0,0.0,0.0,0.0,0.0,0.0,0.0
S14_D13 hbo,0.0,0.023121387283236993,0.017341040462427744,0.017341040462427744,0.0,0.0,0.028901734104046242,0.02023121387283237,0.03468208092485549,0.03468208092485549,0.011560693641618497,0.0,0.04046242774566474,0.03468208092485549,0.031791907514450865,0.03757225433526012,0.017341040462427744,0.031791907514450865,0.028901734104046242,0.04046242774566474,0.023121387283236993,0.03757225433526012,0.0,0.02023121387283237,0.0,0.017341040462427744,0.023121387283236993,0.0,0.04046242774566474,0.008670520231213872,0.0,0.031791907514450865,0.04046242774566474,0.0,0.0,0.0,0.0,0.03468208092485549,0.0,0.0,0.04046242774566474,0.031791907514450865,0.0,0.0,0.03757225433526012,0.028901734104046242,0.031791907514450865,0.04046242774566474,0.02601156069364162,0.03468208092485549,0.0,0.0
S14_D14 hbo,0.0,0.025236593059936908,0.01892744479495268,0.01892744479495268,0.0,0.0,0.031545741324921134,0.022082018927444796,0.03470031545741325,0.03470031545741325,0.012618296529968454,0.0,0.03470031545741325,0.03470031545741325,0.03470031545741325,0.03470031545741325,0.01892744479495268,0.03470031545741325,0.031545741324921134,0.03470031545741325,0.025236593059936908,0.03470031545741325,0.0,0.022082018927444796,0.0,0.01892744479495268,0.025236593059936908,0.0,0.03470031545741325,0.00946372239747634,0.0,0.03470031545741325,0.03470031545741325,0.0,0.0,0.0,0.0,0.03470031545741325,0.0,0.0,0.03470031545741325,0.03470031545741325,0.0,0.0,0.03470031545741325,0.031545741324921134,0.03470031545741325,0.03470031545741325,0.028391167192429023,0.03470031545741325,0.0,0.0
S14_D16 hbo,0.0,0.02416918429003021,0.01812688821752266,0.01812688821752266,0.0,0.0,0.030211480362537766,0.021148036253776436,0.03625377643504532,0.03625377643504532,0.012084592145015106,0.0,0.03625377643504532,0.03625377643504532,0.03323262839879154,0.03625377643504532,0.01812688821752266,0.03323262839879154,0.030211480362537766,0.03625377643504532,0.02416918429003021,0.03625377643504532,0.0,0.021148036253776436,0.0,0.01812688821752266,0.02416918429003021,0.0,0.03625377643504532,0.00906344410876133,0.0,0.03323262839879154,0.03625377643504532,0.0,0.0,0.0,0.0,0.03625377643504532,0.0,0.0,0.03625377643504532,0.03323262839879154,0.0,0.0,0.03625377643504532,0.030211480362537766,0.03323262839879154,0.03625377643504532,0.027190332326283987,0.03625377643504532,0.0,0.0
S15_D13 hbo,0.0,0.02185792349726776,0.01639344262295082,0.01639344262295082,0.0,0.0,0.0273224043715847,0.01912568306010929,0.03278688524590164,0.03278688524590164,0.01092896174863388,0.0,0.040983606557377046,0.03278688524590164,0.030054644808743168,0.03551912568306011,0.01639344262295082,0.030054644808743168,0.0273224043715847,0.04644808743169399,0.02185792349726776,0.03551912568306011,0.0,0.01912568306010929,0.0,0.01639344262295082,0.02185792349726776,0.0,0.04918032786885246,0.00819672131147541,0.0,0.030054644808743168,0.04644808743169399,0.0,0.0,0.0,0.0,0.03278688524590164,0.0,0.0,0.05191256830601093,0.030054644808743168,0.0,0.0,0.03551912568306011,0.0273224043715847,0.030054644808743168,0.04918032786885246,0.02459016393442623,0.03278688524590164,0.0,0.0
S15_D15 hbo,0.0,0.02702702702702703,0.02027027027027027,0.02027027027027027,0.0,0.0,0.033783783783783786,0.02364864864864865,0.033783783783783786,0.033783783783783786,0.013513513513513514,0.0,0.033783783783783786,0.033783783783783786,0.033783783783783786,0.033783783783783786,0.02027027027027027,0.033783783783783786,0.033783783783783786,0.033783783783783786,0.02702702702702703,0.033783783783783786,0.0,0.02027027027027027,0.0,0.016891891891891893,0.02702702702702703,0.0,0.033783783783783786,0.010135135135135136,0.0,0.033783783783783786,0.033783783783783786,0.0,0.0,0.0,0.0,0.033783783783783786,0.0,0.0,0.033783783783783786,0.033783783783783786,0.0,0.0,0.033783783783783786,0.033783783783783786,0.033783783783783786,0.033783783783783786,0.030405405405405407,0.033783783783783786,0.0,0.0
S15_D16 hbo,0.0,0.023529411764705882,0.01764705882352941,0.01764705882352941,0.0,0.0,0.029411764705882353,0.020588235294117647,0.03529411764705882,0.03529411764705882,0.011764705882352941,0.0,0.03823529411764706,0.03529411764705882,0.03235294117647059,0.03823529411764706,0.01764705882352941,0.03235294117647059,0.029411764705882353,0.03823529411764706,0.023529411764705882,0.03823529411764706,0.0,0.020588235294117647,0.0,0.01764705882352941,0.023529411764705882,0.0,0.03823529411764706,0.008823529411764706,0.0,0.03235294117647059,0.03823529411764706,0.0,0.0,0.0,0.0,0.03529411764705882,0.0,0.0,0.03823529411764706,0.03235294117647059,0.0,0.0,0.03823529411764706,0.029411764705882353,0.03235294117647059,0.03823529411764706,0.026470588235294117,0.03529411764705882,0.0,0.0
S16_D14 hbo,0.0,0.0,0.0,0.0,0.0,0.0,0.0,0.0,0.0,0.0,0.0,0.0,0.0,0.0,0.0,0.0,0.0,0.0,0.0,0.0,0.0,0.0,0.0,0.0,0.0,0.0,0.0,0.0,0.0,0.0,0.0,0.0,0.0,0.0,0.0,0.0,0.0,0.0,0.0,0.0,0.0,0.0,0.0,0.0,0.0,0.0,0.0,0.0,0.0,0.0,0.0,0.0
S16_D16 hbo,0.0,0.0,0.0,0.0,0.0,0.0,0.0,0.0,0.0,0.0,0.0,0.0,0.0,0.0,0.0,0.0,0.0,0.0,0.0,0.0,0.0,0.0,0.0,0.0,0.0,0.0,0.0,0.0,0.0,0.0,0.0,0.0,0.0,0.0,0.0,0.0,0.0,0.0,0.0,0.0,0.0,0.0,0.0,0.0,0.0,0.0,0.0,0.0,0.0,0.0,0.0,0.0
