,S1_D1 hbo,S1_D3 hbo,S2_D1 hbo,S2_D2 hbo,S2_D4 hbo,S3_D1 hbo,S3_D3 hbo,S3_D4 hbo,S3_D5 hbo,S4_D2 hbo,S4_D4 hbo,S4_D6 hbo,S4_D11 hbo,S5_D3 hbo,S5_D5 hbo,S5_D7 hbo,S6_D4 hbo,S6_D5 hbo,S6_D6 hbo,S6_D8 hbo,S7_D5 hbo,S7_D7 hbo,S7_D8 hbo,S8_D6 hbo,S8_D8 hbo,S8_D15 hbo,S9_D2 hbo,S9_D9 hbo,S9_D11 hbo,S10_D9 hbo,S10_D10 hbo,S10_D12 hbo,S11_D9 hbo,S11_D11 hbo,S11_D12 hbo,S11_D13 hbo,S12_D10 hbo,S12_D12 hbo,S12_D14 hbo,S13_D6 hbo,S13_D11 hbo,S13_D13 hbo,S13_D15 hbo,S14_D12 hbo,S14_D13 hbo,S14_D14 hbo,S14_D16 hbo,S15_D13 hbo,S15_D15 hbo,S15_D16 hbo,S16_D14 hbo,S16_D16 hbo
S1_D1 hbo,0.059322033898305086,0.0,0.059322033898305086,0.0,0.0,0.05084745762711865,0.06779661016949153,0.06779661016949153,0.0423728813559322,0.0,0.0,0.0,0.0,0.05084745762711865,0.0,0.0,0.0,0.05084745762711865,0.0,0.0,0.05084745762711865,0.01694915254237288,0.0,0.0,0.0,0.0,0.0,0.05084745762711865,0.0,0.0,0.06779661016949153,0.0,0.0,0.05084745762711865,0.0,0.05084745762711865,0.0,0.0,0.03389830508474576,0.0,0.0,0.0,0.0,0.0,0.0,0.0,0.05084745762711865,0.0,0.06779661016949153,0.06779661016949153,0.0,0.0423728813559322
S1_D3 hbo,0.0,0.0,0.0,0.0,0.0,0.0,0.0,0.0,0.0,0.0,0.0,0.0,0.0,0.0,0.0,0.0,0.0,0.0,0.0,0.0,0.0,0.0,0.0,0.0,0.0,0.0,0.0,0.0,0.0,0.0,0.0,0.0,0.0,0.0,0.0,0.0,0.0,0.0,0.0,0.0,0.0,0.0,0.0,0.0,0.0,0.0,0.0,0.0,0.0,0.0,0.0,0.0
S2_D1 hbo,0.046296296296296294,0.0,0.06481481481481481,0.0,0.0,0.037037037037037035,0.05555555555555555,0.06481481481481481,0.046296296296296294,0.0,0.0,0.0,0.0,0.046296296296296294,0.0,0.0,0.0,0.07407407407407407,0.0,0.0,0.06481481481481481,0.018518518518518517,0.0,0.0,0.0,0.0,0.0,0.037037037037037035,0.0,0.0,0.06481481481481481,0.0,0.0,0.037037037037037035,0.0,0.046296296296296294,0.0,0.0,0.037037037037037035,0.0,0.0,0.0,0.0,0.0,0.0,0.0,0.07407407407407407,0.0,0.05555555555555555,0.06481481481481481,0.0,0.06481481481481481
S2_D2 hbo,0.0,0.0,0.0,0.0,0.0,0.0,0.0,0.0,0.0,0.0,0.0,0.0,0.0,0.0,0.0,0.0,0.0,0.0,0.0,0.0,0.0,0.0,0.0,0.0,0.0,0.0,0.0,0.0,0.0,0.0,0.0,0.0,0.0,0.0,0.0,0.0,0.0,0.0,0.0,0.0,0.0,0.0,0.0,0.0,0.0,0.0,0.0,0.0,0.0,0.0,0.0,0.0
S2_D4 hbo,0.0,0.0,0.0,0.0,0.0,0.0,0.0,0.0,0.0,0.0,0.0,0.0,0.0,0.0,0.0,0.0,0.0,0.0,0.0,0.0,0.0,0.0,0.0,0.0,0.0,0.0,0.0,0.0,0.0,0.0,0.0,0.0,0.0,0.0,0.0,0.0,0.0,0.0,0.0,0.0,0.0,0.0,0.0,0.0,0.0,0.0,0.0,0.0,0.0,0.0,0.0,0.0
S3_D1 hbo,0.061855670103092786,0.0,0.061855670103092786,0.0,0.0,0.05154639175257732,0.061855670103092786,0.061855670103092786,0.041237113402061855,0.0,0.0,0.0,0.0,0.061855670103092786,0.0,0.0,0.0,0.05154639175257732,0.0,0.0,0.05154639175257732,0.010309278350515464,0.0,0.0,0.0,0.0,0.0,0.05154639175257732,0.0,0.0,0.061855670103092786,0.0,0.0,0.05154639175257732,0.0,0.061855670103092786,0.0,0.0,0.041237113402061855,0.0,0.0,0.0,0.0,0.0,0.0,0.0,0.05154639175257732,0.0,0.061855670103092786,0.061855670103092786,0.0,0.041237113402061855
S3_D3 hbo,0.05555555555555555,0.0,0.06349206349206349,0.0,0.0,0.047619047619047616,0.06349206349206349,0.07142857142857142,0.03968253968253968,0.0,0.0,0.0,0.0,0.047619047619047616,0.0,0.0,0.0,0.05555555555555555,0.0,0.0,0.05555555555555555,0.015873015873015872,0.0,0.0,0.0,0.0,0.0,0.047619047619047616,0.0,0.0,0.07142857142857142,0.0,0.0,0.047619047619047616,0.0,0.047619047619047616,0.0,0.0,0.031746031746031744,0.0,0.0,0.0,0.0,0.0,0.0,0.0,0.05555555555555555,0.0,0.06349206349206349,0.07142857142857142,0.0,0.047619047619047616
S3_D4 hbo,0.05,0.0,0.06666666666666667,0.0,0.0,0.041666666666666664,0.058333333333333334,0.06666666666666667,0.041666666666666664,0.0,0.0,0.0,0.0,0.05,0.0,0.0,0.0,0.06666666666666667,0.0,0.0,0.058333333333333334,0.016666666666666666,0.0,0.0,0.0,0.0,0.0,0.041666666666666664,0.0,0.0,0.06666666666666667,0.0,0.0,0.041666666666666664,0.0,0.05,0.0,0.0,0.03333333333333333,0.0,0.0,0.0,0.0,0.0,0.0,0.0,0.06666666666666667,0.0,0.058333333333333334,0.06666666666666667,0.0,0.058333333333333334
S3_D5 hbo,0.04225352112676056,0.0,0.07042253521126761,0.0,0.0,0.028169014084507043,0.056338028169014086,0.07042253521126761,0.056338028169014086,0.0,0.0,0.0,0.0,0.04225352112676056,0.0,0.0,0.0,0.07042253521126761,0.0,0.0,0.07042253521126761,0.028169014084507043,0.0,0.0,0.0,0.0,0.0,0.028169014084507043,0.0,0.0,0.07042253521126761,0.0,0.0,0.028169014084507043,0.0,0.04225352112676056,0.0,0.0,0.028169014084507043,0.0,0.0,0.0,0.0,0.0,0.0,0.0,0.07042253521126761,0.0,0.056338028169014086,0.07042253521126761,0.0,0.07042253521126761
S4_D2 hbo,0.0,0.0,0.0,0.0,0.0,0.0,0.0,0.0,0.0,0.0,0.0,0.0,0.0,0.0,0.0,0.0,0.0,0.0,0.0,0.0,0.0,0.0,0.0,0.0,0.0,0.0,0.0,0.0,0.0,0.0,0.0,0.0,0.0,0.0,0.0,0.0,0.0,0.0,0.0,0.0,0.0,0.0,0.0,0.0,0.0,0.0,0.0,0.0,0.0,0.0,0.0,0.0
S4_D4 hbo,0.0,0.0,0.0,0.0,0.0,0.0,0.0,0.0,0.0,0.0,0.0,0.0,0.0,0.0,0.0,0.0,0.0,0.0,0.0,0.0,0.0,0.0,0.0,0.0,0.0,0.0,0.0,0.0,0.0,0.0,0.0,0.0,0.0,0.0,0.0,0.0,0.0,0.0,0.0,0.0,0.0,0.0,0.0,0.0,0.0,0.0,0.0,0.0,0.0,0.0,0.0,0.0
S4_D6 hbo,0.0,0.0,0.0,0.0,0.0,0.0,0.0,0.0,0.0,0.0,0.0,0.0,0.0,0.0,0.0,0.0,0.0,0.0,0.0,0.0,0.0,0.0,0.0,0.0,0.0,0.0,0.0,0.0,0.0,0.0,0.0,0.0,0.0,0.0,0.0,0.0,0.0,0.0,0.0,0.0,0.0,0.0,0.0,0.0,0.0,0.0,0.0,0.0,0.0,0.0,0.0,0.0
S4_D11 hbo,0.0,0.0,0.0,0.0,0.0,0.0,0.0,0.0,0.0,0.0,0.0,0.0,0.0,0.0,0.0,0.0,0.0,0.0,0.0,0.0,0.0,0.0,0.0,0.0,0.0,0.0,0.0,0.0,0.0,0.0,0.0,0.0,0.0,0.0,0.0,0.0,0.0,0.0,0.0,0.0,0.0,0.0,0.0,0.0,0.0,0.0,0.0,0.0,0.0,0.0,0.0,0.0
S5_D3 hbo,0.05154639175257732,0.0,0.061855670103092786,0.0,0.0,0.041237113402061855,0.061855670103092786,0.061855670103092786,0.05154639175257732,0.0,0.0,0.0,0.0,0.05154639175257732,0.0,0.0,0.0,0.061855670103092786,0.0,0.0,0.061855670103092786,0.020618556701030927,0.0,0.0,0.0,0.0,0.0,0.041237113402061855,0.0,0.0,0.061855670103092786,0.0,0.0,0.041237113402061855,0.0,0.05154639175257732,0.0,0.0,0.041237113402061855,0.0,0.0,0.0,0.0,0.0,0.0,0.0,0.061855670103092786,0.0,0.061855670103092786,0.061855670103092786,0.0,0.05154639175257732
S5_D5 hbo,0.0,0.0,0.0,0.0,0.0,0.0,0.0,0.0,0.0,0.0,0.0,0.0,0.0,0.0,0.0,0.0,0.0,0.0,0.0,0.0,0.0,0.0,0.0,0.0,0.0,0.0,0.0,0.0,0.0,0.0,0.0,0.0,0.0,0.0,0.0,0.0,0.0,0.0,0.0,0.0,0.0,0.0,0.0,0.0,0.0,0.0,0.0,0.0,0.0,0.0,0.0,0.0
S5_D7 hbo,0.0,0.0,0.0,0.0,0.0,0.0,0.0,0.0,0.0,0.0,0.0,0.0,0.0,0.0,0.0,0.0,0.0,0.0,0.0,0.0,0.0,0.0,0.0,0.0,0.0,0.0,0.0,0.0,0.0,0.0,0.0,0.0,0.0,0.0,0.0,0.0,0.0,0.0,0.0,0.0,0.0,0.0,0.0,0.0,0.0,0.0,0.0,0.0,0.0,0.0,0.0,0.0
S6_D4 hbo,0.0,0.0,0.0,0.0,0.0,0.0,0.0,0.0,0.0,0.0,0.0,0.0,0.0,0.0,0.0,0.0,0.0,0.0,0.0,0.0,0.0,0.0,0.0,0.0,0.0,0.0,0.0,0.0,0.0,0.0,0.0,0.0,0.0,0.0,0.0,0.0,0.0,0.0,0.0,0.0,0.0,0.0,0.0,0.0,0.0,0.0,0.0,0.0,0.0,0.0,0.0,0.0
S6_D5 hbo,0.041666666666666664,0.0,0.0625,0.0,0.0,0.03125,0.052083333333333336,0.0625,0.052083333333333336,0.0,0.0,0.0,0.0,0.041666666666666664,0.0,0.0,0.0,0.08333333333333333,0.0,0.0,0.0625,0.020833333333333332,0.0,0.0,0.0,0.0,0.0,0.03125,0.0,0.0,0.0625,0.0,0.0,0.03125,0.0,0.041666666666666664,0.0,0.0,0.03125,0.0,0.0,0.0,0.0,0.0,0.0,0.0,0.08333333333333333,0.0,0.052083333333333336,0.0625,0.0,0.09375
S6_D6 hbo,0.0,0.0,0.0,0.0,0.0,0.0,0.0,0.0,0.0,0.0,0.0,0.0,0.0,0.0,0.0,0.0,0.0,0.0,0.0,0.0,0.0,0.0,0.0,0.0,0.0,0.0,0.0,0.0,0.0,0.0,0.0,0.0,0.0,0.0,0.0,0.0,0.0,0.0,0.0,0.0,0.0,0.0,0.0,0.0,0.0,0.0,0.0,0.0,0.0,0.0,0.0,0.0
S6_D8 hbo,0.0,0.0,0.0,0.0,0.0,0.0,0.0,0.0,0.0,0.0,0.0,0.0,0.0,0.0,0.0,0.0,0.0,0.0,0.0,0.0,0.0,0.0,0.0,0.0,0.0,0.0,0.0,0.0,0.0,0.0,0.0,0.0,0.0,0.0,0.0,0.0,0.0,0.0,0.0,0.0,0.0,0.0,0.0,0.0,0.0,0.0,0.0,0.0,0.0,0.0,0.0,0.0
S7_D5 hbo,0.043478260869565216,0.0,0.06521739130434782,0.0,0.0,0.03260869565217391,0.05434782608695652,0.06521739130434782,0.05434782608695652,0.0,0.0,0.0,0.0,0.043478260869565216,0.0,0.0,0.0,0.07608695652173914,0.0,0.0,0.06521739130434782,0.021739130434782608,0.0,0.0,0.0,0.0,0.0,0.03260869565217391,0.0,0.0,0.06521739130434782,0.0,0.0,0.03260869565217391,0.0,0.043478260869565216,0.0,0.0,0.03260869565217391,0.0,0.0,0.0,0.0,0.0,0.0,0.0,0.07608695652173914,0.0,0.05434782608695652,0.06521739130434782,0.0,0.07608695652173914
S7_D7 hbo,0.0,0.0,0.1,0.0,0.0,0.0,0.05,0.1,0.05,0.0,0.0,0.0,0.0,0.0,0.0,0.0,0.0,0.1,0.0,0.0,0.1,0.05,0.0,0.0,0.0,0.0,0.0,0.0,0.0,0.0,0.1,0.0,0.0,0.0,0.0,0.0,0.0,0.0,0.0,0.0,0.0,0.0,0.0,0.0,0.0,0.0,0.1,0.0,0.05,0.1,0.0,0.1
S7_D8 hbo,0.0,0.0,0.0,0.0,0.0,0.0,0.0,0.0,0.0,0.0,0.0,0.0,0.0,0.0,0.0,0.0,0.0,0.0,0.0,0.0,0.0,0.0,0.0,0.0,0.0,0.0,0.0,0.0,0.0,0.0,0.0,0.0,0.0,0.0,0.0,0.0,0.0,0.0,0.0,0.0,0.0,0.0,0.0,0.0,0.0,0.0,0.0,0.0,0.0,0.0,0.0,0.0
S8_D6 hbo,0.0,0.0,0.0,0.0,0.0,0.0,0.0,0.0,0.0,0.0,0.0,0.0,0.0,0.0,0.0,0.0,0.0,0.0,0.0,0.0,0.0,0.0,0.0,0.0,0.0,0.0,0.0,0.0,0.0,0.0,0.0,0.0,0.0,0.0,0.0,0.0,0.0,0.0,0.0,0.0,0.0,0.0,0.0,0.0,0.0,0.0,0.0,0.0,0.0,0.0,0.0,0.0
S8_D8 hbo,0.0,0.0,0.0,0.0,0.0,0.0,0.0,0.0,0.0,0.0,0.0,0.0,0.0,0.0,0.0,0.0,0.0,0.0,0.0,0.0,0.0,0.0,0.0,0.0,0.0,0.0,0.0,0.0,0.0,0.0,0.0,0.0,0.0,0.0,0.0,0.0,0.0,0.0,0.0,0.0,0.0,0.0,0.0,0.0,0.0,0.0,0.0,0.0,0.0,0.0,0.0,0.0
S8_D15 hbo,0.0,0.0,0.0,0.0,0.0,0.0,0.0,0.0,0.0,0.0,0.0,0.0,0.0,0.0,0.0,0.0,0.0,0.0,0.0,0.0,0.0,0.0,0.0,0.0,0.0,0.0,0.0,0.0,0.0,0.0,0.0,0.0,0.0,0.0,0.0,0.0,0.0,0.0,0.0,0.0,0.0,0.0,0.0,0.0,0.0,0.0,0.0,0.0,0.0,0.0,0.0,0.0
S9_D2 hbo,0.0,0.0,0.0,0.0,0.0,0.0,0.0,0.0,0.0,0.0,0.0,0.0,0.0,0.0,0.0,0.0,0.0,0.0,0.0,0.0,0.0,0.0,0.0,0.0,0.0,0.0,0.0,0.0,0.0,0.0,0.0,0.0,0.0,0.0,0.0,0.0,0.0,0.0,0.0,0.0,0.0,0.0,0.0,0.0,0.0,0.0,0.0,0.0,0.0,0.0,0.0,0.0
S9_D9 hbo,0.07142857142857142,0.0,0.05357142857142857,0.0,0.0,0.05357142857142857,0.07142857142857142,0.0625,0.03571428571428571,0.0,0.0,0.0,0.0,0.05357142857142857,0.0,0.0,0.0,0.044642857142857144,0.0,0.0,0.044642857142857144,0.008928571428571428,0.0,0.0,0.0,0.0,0.0,0.0625,0.0,0.0,0.07142857142857142,0.0,0.0,0.0625,0.0,0.05357142857142857,0.0,0.0,0.03571428571428571,0.0,0.0,0.0,0.0,0.0,0.0,0.0,0.044642857142857144,0.0,0.0625,0.07142857142857142,0.0,0.03571428571428571
S9_D11 hbo,0.0,0.0,0.0,0.0,0.0,0.0,0.0,0.0,0.0,0.0,0.0,0.0,0.0,0.0,0.0,0.0,0.0,0.0,0.0,0.0,0.0,0.0,0.0,0.0,0.0,0.0,0.0,0.0,0.0,0.0,0.0,0.0,0.0,0.0,0.0,0.0,0.0,0.0,0.0,0.0,0.0,0.0,0.0,0.0,0.0,0.0,0.0,0.0,0.0,0.0,0.0,0.0
S10_D9 hbo,0.0,0.0,0.0,0.0,0.0,0.0,0.0,0.0,0.0,0.0,0.0,0.0,0.0,0.0,0.0,0.0,0.0,0.0,0.0,0.0,0.0,0.0,0.0,0.0,0.0,0.0,0.0,0.0,0.0,0.0,0.0,0.0,0.0,0.0,0.0,0.0,0.0,0.0,0.0,0.0,0.0,0.0,0.0,0.0,0.0,0.0,0.0,0.0,0.0,0.0,0.0,0.0
S10_D10 hbo,0.05426356589147287,0.0,0.06201550387596899,0.0,0.0,0.046511627906976744,0.06201550387596899,0.06976744186046512,0.03875968992248062,0.0,0.0,0.0,0.0,0.046511627906976744,0.0,0.0,0.0,0.06201550387596899,0.0,0.0,0.05426356589147287,0.015503875968992248,0.0,0.0,0.0,0.0,0.0,0.046511627906976744,0.0,0.0,0.06976744186046512,0.0,0.0,0.046511627906976744,0.0,0.046511627906976744,0.0,0.0,0.031007751937984496,0.0,0.0,0.0,0.0,0.0,0.0,0.0,0.06201550387596899,0.0,0.06201550387596899,0.06976744186046512,0.0,0.05426356589147287
S10_D12 hbo,0.0,0.0,0.0,0.0,0.0,0.0,0.0,0.0,0.0,0.0,0.0,0.0,0.0,0.0,0.0,0.0,0.0,0.0,0.0,0.0,0.0,0.0,0.0,0.0,0.0,0.0,0.0,0.0,0.0,0.0,0.0,0.0,0.0,0.0,0.0,0.0,0.0,0.0,0.0,0.0,0.0,0.0,0.0,0.0,0.0,0.0,0.0,0.0,0.0,0.0,0.0,0.0
S11_D9 hbo,0.0,0.0,0.0,0.0,0.0,0.0,0.0,0.0,0.0,0.0,0.0,0.0,0.0,0.0,0.0,0.0,0.0,0.0,0.0,0.0,0.0,0.0,0.0,0.0,0.0,0.0,0.0,0.0,0.0,0.0,0.0,0.0,0.0,0.0,0.0,0.0,0.0,0.0,0.0,0.0,0.0,0.0,0.0,0.0,0.0,0.0,0.0,0.0,0.0,0.0,0.0,0.0
S11_D11 hbo,0.0660377358490566,0.0,0.05660377358490566,0.0,0.0,0.05660377358490566,0.0660377358490566,0.0660377358490566,0.03773584905660377,0.0,0.0,0.0,0.0,0.05660377358490566,0.0,0.0,0.0,0.04716981132075472,0.0,0.0,0.04716981132075472,0.009433962264150943,0.0,0.0,0.0,0.0,0.0,0.05660377358490566,0.0,0.0,0.0660377358490566,0.0,0.0,0.05660377358490566,0.0,0.05660377358490566,0.0,0.0,0.03773584905660377,0.0,0.0,0.0,0.0,0.0,0.0,0.0,0.04716981132075472,0.0,0.0660377358490566,0.0660377358490566,0.0,0.03773584905660377
S11_D12 hbo,0.0,0.0,0.0,0.0,0.0,0.0,0.0,0.0,0.0,0.0,0.0,0.0,0.0,0.0,0.0,0.0,0.0,0.0,0.0,0.0,0.0,0.0,0.0,0.0,0.0,0.0,0.0,0.0,0.0,0.0,0.0,0.0,0.0,0.0,0.0,0.0,0.0,0.0,0.0,0.0,0.0,0.0,0.0,0.0,0.0,0.0,0.0,0.0,0.0,0.0,0.0,0.0
S11_D13 hbo,0.05154639175257732,0.0,0.061855670103092786,0.0,0.0,0.041237113402061855,0.061855670103092786,0.061855670103092786,0.05154639175257732,0.0,0.0,0.0,0.0,0.05154639175257732,0.0,0.0,0.0,0.061855670103092786,0.0,0.0,0.061855670103092786,0.020618556701030927,0.0,0.0,0.0,0.0,0.0,0.041237113402061855,0.0,0.0,0.061855670103092786,0.0,0.0,0.041237113402061855,0.0,0.05154639175257732,0.0,0.0,0.041237113402061855,0.0,0.0,0.0,0.0,0.0,0.0,0.0,0.061855670103092786,0.0,0.061855670103092786,0.061855670103092786,0.0,0.05154639175257732
S12_D10 hbo,0.0,0.0,0.0,0.0,0.0,0.0,0.0,0.0,0.0,0.0,0.0,0.0,0.0,0.0,0.0,0.0,0.0,0.0,0.0,0.0,0.0,0.0,0.0,0.0,0.0,0.0,0.0,0.0,0.0,0.0,0.0,0.0,0.0,0.0,0.0,0.0,0.0,0.0,0.0,0.0,0.0,0.0,0.0,0.0,0.0,0.0,0.0,0.0,0.0,0.0,0.0,0.0
S12_D12 hbo,0.0,0.0,0.0,0.0,0.0,0.0,0.0,0.0,0.0,0.0,0.0,0.0,0.0,0.0,0.0,0.0,0.0,0.0,0.0,0.0,0.0,0.0,0.0,0.0,0.0,0.0,0.0,0.0,0.0,0.0,0.0,0.0,0.0,0.0,0.0,0.0,0.0,0.0,0.0,0.0,0.0,0.0,0.0,0.0,0.0,0.0,0.0,0.0,0.0,0.0,0.0,0.0
S12_D14 hbo,0.057971014492753624,0.0,0.057971014492753624,0.0,0.0,0.043478260869565216,0.057971014492753624,0.057971014492753624,0.057971014492753624,0.0,0.0,0.0,0.0,0.057971014492753624,0.0,0.0,0.0,0.057971014492753624,0.0,0.0,0.057971014492753624,0.014492753623188406,0.0,0.0,0.0,0.0,0.0,0.043478260869565216,0.0,0.0,0.057971014492753624,0.0,0.0,0.043478260869565216,0.0,0.057971014492753624,0.0,0.0,0.043478260869565216,0.0,0.0,0.0,0.0,0.0,0.0,0.0,0.057971014492753624,0.0,0.057971014492753624,0.057971014492753624,0.0,0.057971014492753624
S13_D6 hbo,0.0,0.0,0.0,0.0,0.0,0.0,0.0,0.0,0.0,0.0,0.0,0.0,0.0,0.0,0.0,0.0,0.0,0.0,0.0,0.0,0.0,0.0,0.0,0.0,0.0,0.0,0.0,0.0,0.0,0.0,0.0,0.0,0.0,0.0,0.0,0.0,0.0,0.0,0.0,0.0,0.0,0.0,0.0,0.0,0.0,0.0,0.0,0.0,0.0,0.0,0.0,0.0
S13_D11 hbo,0.0,0.0,0.0,0.0,0.0,0.0,0.0,0.0,0.0,0.0,0.0,0.0,0.0,0.0,0.0,0.0,0.0,0.0,0.0,0.0,0.0,0.0,0.0,0.0,0.0,0.0,0.0,0.0,0.0,0.0,0.0,0.0,0.0,0.0,0.0,0.0,0.0,0.0,0.0,0.0,0.0,0.0,0.0,0.0,0.0,0.0,0.0,0.0,0.0,0.0,0.0,0.0
S13_D13 hbo,0.0,0.0,0.0,0.0,0.0,0.0,0.0,0.0,0.0,0.0,0.0,0.0,0.0,0.0,0.0,0.0,0.0,0.0,0.0,0.0,0.0,0.0,0.0,0.0,0.0,0.0,0.0,0.0,0.0,0.0,0.0,0.0,0.0,0.0,0.0,0.0,0.0,0.0,0.0,0.0,0.0,0.0,0.0,0.0,0.0,0.0,0.0,0.0,0.0,0.0,0.0,0.0
S13_D15 hbo,0.0,0.0,0.0,0.0,0.0,0.0,0.0,0.0,0.0,0.0,0.0,0.0,0.0,0.0,0.0,0.0,0.0,0.0,0.0,0.0,0.0,0.0,0.0,0.0,0.0,0.0,0.0,0.0,0.0,0.0,0.0,0.0,0.0,0.0,0.0,0.0,0.0,0.0,0.0,0.0,0.0,0.0,0.0,0.0,0.0,0.0,0.0,0.0,0.0,0.0,0.0,0.0
S14_D12 hbo,0.0,0.0,0.0,0.0,0.0,0.0,0.0,0.0,0.0,0.0,0.0,0.0,0.0,0.0,0.0,0.0,0.0,0.0,0.0,0.0,0.0,0.0,0.0,0.0,0.0,0.0,0.0,0.0,0.0,0.0,0.0,0.0,0.0,0.0,0.0,0.0,0.0,0.0,0.0,0.0,0.0,0.0,0.0,0.0,0.0,0.0,0.0,0.0,0.0,0.0,0.0,0.0
S14_D13 hbo,0.0,0.0,0.0,0.0,0.0,0.0,0.0,0.0,0.0,0.0,0.0,0.0,0.0,0.0,0.0,0.0,0.0,0.0,0.0,0.0,0.0,0.0,0.0,0.0,0.0,0.0,0.0,0.0,0.0,0.0,0.0,0.0,0.0,0.0,0.0,0.0,0.0,0.0,0.0,0.0,0.0,0.0,0.0,0.0,0.0,0.0,0.0,0.0,0.0,0.0,0.0,0.0
S14_D14 hbo,0.0,0.0,0.0,0.0,0.0,0.0,0.0,0.0,0.0,0.0,0.0,0.0,0.0,0.0,0.0,0.0,0.0,0.0,0.0,0.0,0.0,0.0,0.0,0.0,0.0,0.0,0.0,0.0,0.0,0.0,0.0,0.0,0.0,0.0,0.0,0.0,0.0,0.0,0.0,0.0,0.0,0.0,0.0,0.0,0.0,0.0,0.0,0.0,0.0,0.0,0.0,0.0
S14_D16 hbo,0.041666666666666664,0.0,0.0625,0.0,0.0,0.03125,0.052083333333333336,0.0625,0.052083333333333336,0.0,0.0,0.0,0.0,0.041666666666666664,0.0,0.0,0.0,0.08333333333333333,0.0,0.0,0.0625,0.020833333333333332,0.0,0.0,0.0,0.0,0.0,0.03125,0.0,0.0,0.0625,0.0,0.0,0.03125,0.0,0.041666666666666664,0.0,0.0,0.03125,0.0,0.0,0.0,0.0,0.0,0.0,0.0,0.08333333333333333,0.0,0.052083333333333336,0.0625,0.0,0.09375
S15_D13 hbo,0.0,0.0,0.0,0.0,0.0,0.0,0.0,0.0,0.0,0.0,0.0,0.0,0.0,0.0,0.0,0.0,0.0,0.0,0.0,0.0,0.0,0.0,0.0,0.0,0.0,0.0,0.0,0.0,0.0,0.0,0.0,0.0,0.0,0.0,0.0,0.0,0.0,0.0,0.0,0.0,0.0,0.0,0.0,0.0,0.0,0.0,0.0,0.0,0.0,0.0,0.0,0.0
S15_D15 hbo,0.05128205128205128,0.0,0.06837606837606838,0.0,0.0,0.042735042735042736,0.05982905982905983,0.06837606837606838,0.042735042735042736,0.0,0.0,0.0,0.0,0.05128205128205128,0.0,0.0,0.0,0.05982905982905983,0.0,0.0,0.05982905982905983,0.017094017094017096,0.0,0.0,0.0,0.0,0.0,0.042735042735042736,0.0,0.0,0.06837606837606838,0.0,0.0,0.042735042735042736,0.0,0.05128205128205128,0.0,0.0,0.03418803418803419,0.0,0.0,0.0,0.0,0.0,0.0,0.0,0.05982905982905983,0.0,0.05982905982905983,0.06837606837606838,0.0,0.05128205128205128
S15_D16 hbo,0.05426356589147287,0.0,0.06201550387596899,0.0,0.0,0.046511627906976744,0.06201550387596899,0.06976744186046512,0.03875968992248062,0.0,0.0,0.0,0.0,0.046511627906976744,0.0,0.0,0.0,0.06201550387596899,0.0,0.0,0.05426356589147287,0.015503875968992248,0.0,0.0,0.0,0.0,0.0,0.046511627906976744,0.0,0.0,0.06976744186046512,0.0,0.0,0.046511627906976744,0.0,0.046511627906976744,0.0,0.0,0.031007751937984496,0.0,0.0,0.0,0.0,0.0,0.0,0.0,0.06201550387596899,0.0,0.06201550387596899,0.06976744186046512,0.0,0.05426356589147287
S16_D14 hbo,0.0,0.0,0.0,0.0,0.0,0.0,0.0,0.0,0.0,0.0,0.0,0.0,0.0,0.0,0.0,0.0,0.0,0.0,0.0,0.0,0.0,0.0,0.0,0.0,0.0,0.0,0.0,0.0,0.0,0.0,0.0,0.0,0.0,0.0,0.0,0.0,0.0,0.0,0.0,0.0,0.0,0.0,0.0,0.0,0.0,0.0,0.0,0.0,0.0,0.0,0.0,0.0
S16_D16 hbo,0.0375,0.0,0.0625,0.0,0.0,0.025,0.05,0.0625,0.05,0.0,0.0,0.0,0.0,0.0375,0.0,0.0,0.0,0.0875,0.0,0.0,0.0625,0.025,0.0,0.0,0.0,0.0,0.0,0.025,0.0,0.0,0.0625,0.0,0.0,0.025,0.0,0.0375,0.0,0.0,0.025,0.0,0.0,0.0,0.0,0.0,0.0,0.0,0.0875,0.0,0.05,0.0625,0.0,0.125
