,S1_D1 hbo,S1_D3 hbo,S2_D1 hbo,S2_D2 hbo,S2_D4 hbo,S3_D1 hbo,S3_D3 hbo,S3_D4 hbo,S3_D5 hbo,S4_D2 hbo,S4_D4 hbo,S4_D6 hbo,S4_D11 hbo,S5_D3 hbo,S5_D5 hbo,S5_D7 hbo,S6_D4 hbo,S6_D5 hbo,S6_D6 hbo,S6_D8 hbo,S7_D5 hbo,S7_D7 hbo,S7_D8 hbo,S8_D6 hbo,S8_D8 hbo,S8_D15 hbo,S9_D2 hbo,S9_D9 hbo,S9_D11 hbo,S10_D9 hbo,S10_D10 hbo,S10_D12 hbo,S11_D9 hbo,S11_D11 hbo,S11_D12 hbo,S11_D13 hbo,S12_D10 hbo,S12_D12 hbo,S12_D14 hbo,S13_D6 hbo,S13_D11 hbo,S13_D13 hbo,S13_D15 hbo,S14_D12 hbo,S14_D13 hbo,S14_D14 hbo,S14_D16 hbo,S15_D13 hbo,S15_D15 hbo,S15_D16 hbo,S16_D14 hbo,S16_D16 hbo
S1_D1 hbo,0.03165938864628821,0.0,0.018558951965065504,0.021834061135371178,0.024017467248908297,0.028384279475982533,0.03165938864628821,0.027292576419213975,0.03275109170305677,0.016375545851528384,0.024017467248908297,0.025109170305676855,0.018558951965065504,0.0,0.03165938864628821,0.0,0.0,0.03275109170305677,0.0,0.0,0.02947598253275109,0.02947598253275109,0.027292576419213975,0.03056768558951965,0.03056768558951965,0.02947598253275109,0.018558951965065504,0.0,0.0,0.009825327510917031,0.0,0.024017467248908297,0.006550218340611353,0.021834061135371178,0.019650655021834062,0.02292576419213974,0.0,0.014192139737991267,0.026200873362445413,0.026200873362445413,0.021834061135371178,0.024017467248908297,0.021834061135371178,0.021834061135371178,0.015283842794759825,0.026200873362445413,0.024017467248908297,0.014192139737991267,0.03056768558951965,0.027292576419213975,0.017467248908296942,0.024017467248908297
S1_D3 hbo,0.0,0.0,0.0,0.0,0.0,0.0,0.0,0.0,0.0,0.0,0.0,0.0,0.0,0.0,0.0,0.0,0.0,0.0,0.0,0.0,0.0,0.0,0.0,0.0,0.0,0.0,0.0,0.0,0.0,0.0,0.0,0.0,0.0,0.0,0.0,0.0,0.0,0.0,0.0,0.0,0.0,0.0,0.0,0.0,0.0,0.0,0.0,0.0,0.0,0.0,0.0,0.0
S2_D1 hbo,0.025245441795231416,0.0,0.023842917251051893,0.025245441795231416,0.025245441795231416,0.025245441795231416,0.025245441795231416,0.025245441795231416,0.025245441795231416,0.021037868162692847,0.025245441795231416,0.025245441795231416,0.023842917251051893,0.0,0.025245441795231416,0.0,0.0,0.025245441795231416,0.0,0.0,0.025245441795231416,0.025245441795231416,0.025245441795231416,0.025245441795231416,0.025245441795231416,0.025245441795231416,0.023842917251051893,0.0,0.0,0.012622720897615708,0.0,0.025245441795231416,0.008415147265077139,0.025245441795231416,0.025245441795231416,0.025245441795231416,0.0,0.0182328190743338,0.025245441795231416,0.025245441795231416,0.025245441795231416,0.025245441795231416,0.025245441795231416,0.025245441795231416,0.019635343618513323,0.025245441795231416,0.025245441795231416,0.0182328190743338,0.025245441795231416,0.025245441795231416,0.02244039270687237,0.025245441795231416
S2_D2 hbo,0.026217228464419477,0.0,0.02122347066167291,0.024968789013732832,0.026217228464419477,0.026217228464419477,0.026217228464419477,0.026217228464419477,0.026217228464419477,0.018726591760299626,0.026217228464419477,0.026217228464419477,0.02122347066167291,0.0,0.026217228464419477,0.0,0.0,0.026217228464419477,0.0,0.0,0.026217228464419477,0.026217228464419477,0.026217228464419477,0.026217228464419477,0.026217228464419477,0.026217228464419477,0.02122347066167291,0.0,0.0,0.011235955056179775,0.0,0.026217228464419477,0.00749063670411985,0.024968789013732832,0.02247191011235955,0.026217228464419477,0.0,0.016229712858926344,0.026217228464419477,0.026217228464419477,0.024968789013732832,0.026217228464419477,0.024968789013732832,0.024968789013732832,0.017478152309612985,0.026217228464419477,0.026217228464419477,0.016229712858926344,0.026217228464419477,0.026217228464419477,0.019975031210986267,0.026217228464419477
S2_D4 hbo,0.027218934911242602,0.0,0.020118343195266272,0.023668639053254437,0.02603550295857988,0.027218934911242602,0.027218934911242602,0.027218934911242602,0.027218934911242602,0.01775147928994083,0.02603550295857988,0.027218934911242602,0.020118343195266272,0.0,0.027218934911242602,0.0,0.0,0.027218934911242602,0.0,0.0,0.027218934911242602,0.027218934911242602,0.027218934911242602,0.027218934911242602,0.027218934911242602,0.027218934911242602,0.020118343195266272,0.0,0.0,0.010650887573964497,0.0,0.02603550295857988,0.007100591715976331,0.023668639053254437,0.021301775147928994,0.02485207100591716,0.0,0.015384615384615385,0.027218934911242602,0.027218934911242602,0.023668639053254437,0.02603550295857988,0.023668639053254437,0.023668639053254437,0.016568047337278107,0.027218934911242602,0.02603550295857988,0.015384615384615385,0.027218934911242602,0.027218934911242602,0.01893491124260355,0.02603550295857988
S3_D1 hbo,0.029966703662597113,0.0,0.018867924528301886,0.022197558268590455,0.0244173140954495,0.02885682574916759,0.029966703662597113,0.02774694783573807,0.029966703662597113,0.016648168701442843,0.0244173140954495,0.025527192008879023,0.018867924528301886,0.0,0.029966703662597113,0.0,0.0,0.029966703662597113,0.0,0.0,0.029966703662597113,0.029966703662597113,0.02774694783573807,0.029966703662597113,0.029966703662597113,0.029966703662597113,0.018867924528301886,0.0,0.0,0.009988901220865706,0.0,0.0244173140954495,0.006659267480577136,0.022197558268590455,0.01997780244173141,0.023307436182019976,0.0,0.014428412874583796,0.026637069922308545,0.026637069922308545,0.022197558268590455,0.0244173140954495,0.022197558268590455,0.022197558268590455,0.01553829078801332,0.026637069922308545,0.0244173140954495,0.014428412874583796,0.029966703662597113,0.02774694783573807,0.017758046614872364,0.0244173140954495
S3_D3 hbo,0.03165938864628821,0.0,0.018558951965065504,0.021834061135371178,0.024017467248908297,0.028384279475982533,0.03165938864628821,0.027292576419213975,0.03275109170305677,0.016375545851528384,0.024017467248908297,0.025109170305676855,0.018558951965065504,0.0,0.03165938864628821,0.0,0.0,0.03275109170305677,0.0,0.0,0.02947598253275109,0.02947598253275109,0.027292576419213975,0.03056768558951965,0.03056768558951965,0.02947598253275109,0.018558951965065504,0.0,0.0,0.009825327510917031,0.0,0.024017467248908297,0.006550218340611353,0.021834061135371178,0.019650655021834062,0.02292576419213974,0.0,0.014192139737991267,0.026200873362445413,0.026200873362445413,0.021834061135371178,0.024017467248908297,0.021834061135371178,0.021834061135371178,0.015283842794759825,0.026200873362445413,0.024017467248908297,0.014192139737991267,0.03056768558951965,0.027292576419213975,0.017467248908296942,0.024017467248908297
S3_D4 hbo,0.029213483146067417,0.0,0.019101123595505618,0.02247191011235955,0.024719101123595506,0.029213483146067417,0.029213483146067417,0.028089887640449437,0.029213483146067417,0.016853932584269662,0.024719101123595506,0.025842696629213482,0.019101123595505618,0.0,0.029213483146067417,0.0,0.0,0.029213483146067417,0.0,0.0,0.029213483146067417,0.029213483146067417,0.028089887640449437,0.029213483146067417,0.029213483146067417,0.029213483146067417,0.019101123595505618,0.0,0.0,0.010112359550561797,0.0,0.024719101123595506,0.006741573033707865,0.02247191011235955,0.020224719101123594,0.02359550561797753,0.0,0.014606741573033709,0.02696629213483146,0.02696629213483146,0.02247191011235955,0.024719101123595506,0.02247191011235955,0.02247191011235955,0.015730337078651686,0.02696629213483146,0.024719101123595506,0.014606741573033709,0.029213483146067417,0.028089887640449437,0.017977528089887642,0.024719101123595506
S3_D5 hbo,0.03162486368593239,0.0,0.018538713195201745,0.021810250817884406,0.023991275899672846,0.028353326063249727,0.03162486368593239,0.027262813522355506,0.03380588876772083,0.016357688113413305,0.023991275899672846,0.025081788440567066,0.018538713195201745,0.0,0.03162486368593239,0.0,0.0,0.03271537622682661,0.0,0.0,0.029443838604143947,0.029443838604143947,0.027262813522355506,0.030534351145038167,0.030534351145038167,0.029443838604143947,0.018538713195201745,0.0,0.0,0.009814612868047983,0.0,0.023991275899672846,0.006543075245365322,0.021810250817884406,0.019629225736095966,0.022900763358778626,0.0,0.014176663031624863,0.026172300981461286,0.026172300981461286,0.021810250817884406,0.023991275899672846,0.021810250817884406,0.021810250817884406,0.015267175572519083,0.026172300981461286,0.023991275899672846,0.014176663031624863,0.030534351145038167,0.027262813522355506,0.017448200654307525,0.023991275899672846
S4_D2 hbo,0.02476780185758514,0.0,0.02476780185758514,0.02476780185758514,0.02476780185758514,0.02476780185758514,0.02476780185758514,0.02476780185758514,0.02476780185758514,0.02321981424148607,0.02476780185758514,0.02476780185758514,0.02476780185758514,0.0,0.02476780185758514,0.0,0.0,0.02476780185758514,0.0,0.0,0.02476780185758514,0.02476780185758514,0.02476780185758514,0.02476780185758514,0.02476780185758514,0.02476780185758514,0.02476780185758514,0.0,0.0,0.01393188854489164,0.0,0.02476780185758514,0.009287925696594427,0.02476780185758514,0.02476780185758514,0.02476780185758514,0.0,0.020123839009287926,0.02476780185758514,0.02476780185758514,0.02476780185758514,0.02476780185758514,0.02476780185758514,0.02476780185758514,0.021671826625386997,0.02476780185758514,0.02476780185758514,0.020123839009287926,0.02476780185758514,0.02476780185758514,0.02476780185758514,0.02476780185758514
S4_D4 hbo,0.027218934911242602,0.0,0.020118343195266272,0.023668639053254437,0.02603550295857988,0.027218934911242602,0.027218934911242602,0.027218934911242602,0.027218934911242602,0.01775147928994083,0.02603550295857988,0.027218934911242602,0.020118343195266272,0.0,0.027218934911242602,0.0,0.0,0.027218934911242602,0.0,0.0,0.027218934911242602,0.027218934911242602,0.027218934911242602,0.027218934911242602,0.027218934911242602,0.027218934911242602,0.020118343195266272,0.0,0.0,0.010650887573964497,0.0,0.02603550295857988,0.007100591715976331,0.023668639053254437,0.021301775147928994,0.02485207100591716,0.0,0.015384615384615385,0.027218934911242602,0.027218934911242602,0.023668639053254437,0.02603550295857988,0.023668639053254437,0.023668639053254437,0.016568047337278107,0.027218934911242602,0.02603550295857988,0.015384615384615385,0.027218934911242602,0.027218934911242602,0.01893491124260355,0.02603550295857988
S4_D6 hbo,0.027809965237543453,0.0,0.019698725376593278,0.023174971031286212,0.02549246813441483,0.027809965237543453,0.027809965237543453,0.027809965237543453,0.027809965237543453,0.01738122827346466,0.02549246813441483,0.026651216685979143,0.019698725376593278,0.0,0.027809965237543453,0.0,0.0,0.027809965237543453,0.0,0.0,0.027809965237543453,0.027809965237543453,0.027809965237543453,0.027809965237543453,0.027809965237543453,0.027809965237543453,0.019698725376593278,0.0,0.0,0.010428736964078795,0.0,0.02549246813441483,0.006952491309385863,0.023174971031286212,0.02085747392815759,0.02433371958285052,0.0,0.015063731170336037,0.027809965237543453,0.027809965237543453,0.023174971031286212,0.02549246813441483,0.023174971031286212,0.023174971031286212,0.016222479721900347,0.027809965237543453,0.02549246813441483,0.015063731170336037,0.027809965237543453,0.027809965237543453,0.01853997682502897,0.02549246813441483
S4_D11 hbo,0.025245441795231416,0.0,0.023842917251051893,0.025245441795231416,0.025245441795231416,0.025245441795231416,0.025245441795231416,0.025245441795231416,0.025245441795231416,0.021037868162692847,0.025245441795231416,0.025245441795231416,0.023842917251051893,0.0,0.025245441795231416,0.0,0.0,0.025245441795231416,0.0,0.0,0.025245441795231416,0.025245441795231416,0.025245441795231416,0.025245441795231416,0.025245441795231416,0.025245441795231416,0.023842917251051893,0.0,0.0,0.012622720897615708,0.0,0.025245441795231416,0.008415147265077139,0.025245441795231416,0.025245441795231416,0.025245441795231416,0.0,0.0182328190743338,0.025245441795231416,0.025245441795231416,0.025245441795231416,0.025245441795231416,0.025245441795231416,0.025245441795231416,0.019635343618513323,0.025245441795231416,0.025245441795231416,0.0182328190743338,0.025245441795231416,0.025245441795231416,0.02244039270687237,0.025245441795231416
S5_D3 hbo,0.0,0.0,0.0,0.0,0.0,0.0,0.0,0.0,0.0,0.0,0.0,0.0,0.0,0.0,0.0,0.0,0.0,0.0,0.0,0.0,0.0,0.0,0.0,0.0,0.0,0.0,0.0,0.0,0.0,0.0,0.0,0.0,0.0,0.0,0.0,0.0,0.0,0.0,0.0,0.0,0.0,0.0,0.0,0.0,0.0,0.0,0.0,0.0,0.0,0.0,0.0,0.0
S5_D5 hbo,0.03165938864628821,0.0,0.018558951965065504,0.021834061135371178,0.024017467248908297,0.028384279475982533,0.03165938864628821,0.027292576419213975,0.03275109170305677,0.016375545851528384,0.024017467248908297,0.025109170305676855,0.018558951965065504,0.0,0.03165938864628821,0.0,0.0,0.03275109170305677,0.0,0.0,0.02947598253275109,0.02947598253275109,0.027292576419213975,0.03056768558951965,0.03056768558951965,0.02947598253275109,0.018558951965065504,0.0,0.0,0.009825327510917031,0.0,0.024017467248908297,0.006550218340611353,0.021834061135371178,0.019650655021834062,0.02292576419213974,0.0,0.014192139737991267,0.026200873362445413,0.026200873362445413,0.021834061135371178,0.024017467248908297,0.021834061135371178,0.021834061135371178,0.015283842794759825,0.026200873362445413,0.024017467248908297,0.014192139737991267,0.03056768558951965,0.027292576419213975,0.017467248908296942,0.024017467248908297
S5_D7 hbo,0.0,0.0,0.0,0.0,0.0,0.0,0.0,0.0,0.0,0.0,0.0,0.0,0.0,0.0,0.0,0.0,0.0,0.0,0.0,0.0,0.0,0.0,0.0,0.0,0.0,0.0,0.0,0.0,0.0,0.0,0.0,0.0,0.0,0.0,0.0,0.0,0.0,0.0,0.0,0.0,0.0,0.0,0.0,0.0,0.0,0.0,0.0,0.0,0.0,0.0,0.0,0.0
S6_D4 hbo,0.0,0.0,0.0,0.0,0.0,0.0,0.0,0.0,0.0,0.0,0.0,0.0,0.0,0.0,0.0,0.0,0.0,0.0,0.0,0.0,0.0,0.0,0.0,0.0,0.0,0.0,0.0,0.0,0.0,0.0,0.0,0.0,0.0,0.0,0.0,0.0,0.0,0.0,0.0,0.0,0.0,0.0,0.0,0.0,0.0,0.0,0.0,0.0,0.0,0.0,0.0,0.0
S6_D5 hbo,0.03162486368593239,0.0,0.018538713195201745,0.021810250817884406,0.023991275899672846,0.028353326063249727,0.03162486368593239,0.027262813522355506,0.03380588876772083,0.016357688113413305,0.023991275899672846,0.025081788440567066,0.018538713195201745,0.0,0.03162486368593239,0.0,0.0,0.03271537622682661,0.0,0.0,0.029443838604143947,0.029443838604143947,0.027262813522355506,0.030534351145038167,0.030534351145038167,0.029443838604143947,0.018538713195201745,0.0,0.0,0.009814612868047983,0.0,0.023991275899672846,0.006543075245365322,0.021810250817884406,0.019629225736095966,0.022900763358778626,0.0,0.014176663031624863,0.026172300981461286,0.026172300981461286,0.021810250817884406,0.023991275899672846,0.021810250817884406,0.021810250817884406,0.015267175572519083,0.026172300981461286,0.023991275899672846,0.014176663031624863,0.030534351145038167,0.027262813522355506,0.017448200654307525,0.023991275899672846
S6_D6 hbo,0.0,0.0,0.0,0.0,0.0,0.0,0.0,0.0,0.0,0.0,0.0,0.0,0.0,0.0,0.0,0.0,0.0,0.0,0.0,0.0,0.0,0.0,0.0,0.0,0.0,0.0,0.0,0.0,0.0,0.0,0.0,0.0,0.0,0.0,0.0,0.0,0.0,0.0,0.0,0.0,0.0,0.0,0.0,0.0,0.0,0.0,0.0,0.0,0.0,0.0,0.0,0.0
S6_D8 hbo,0.0,0.0,0.0,0.0,0.0,0.0,0.0,0.0,0.0,0.0,0.0,0.0,0.0,0.0,0.0,0.0,0.0,0.0,0.0,0.0,0.0,0.0,0.0,0.0,0.0,0.0,0.0,0.0,0.0,0.0,0.0,0.0,0.0,0.0,0.0,0.0,0.0,0.0,0.0,0.0,0.0,0.0,0.0,0.0,0.0,0.0,0.0,0.0,0.0,0.0,0.0,0.0
S7_D5 hbo,0.030803080308030802,0.0,0.0187018701870187,0.022002200220022004,0.0242024202420242,0.028602860286028604,0.030803080308030802,0.027502750275027504,0.030803080308030802,0.0165016501650165,0.0242024202420242,0.025302530253025302,0.0187018701870187,0.0,0.030803080308030802,0.0,0.0,0.030803080308030802,0.0,0.0,0.0297029702970297,0.0297029702970297,0.027502750275027504,0.030803080308030802,0.030803080308030802,0.0297029702970297,0.0187018701870187,0.0,0.0,0.009900990099009901,0.0,0.0242024202420242,0.006600660066006601,0.022002200220022004,0.019801980198019802,0.0231023102310231,0.0,0.014301430143014302,0.026402640264026403,0.026402640264026403,0.022002200220022004,0.0242024202420242,0.022002200220022004,0.022002200220022004,0.015401540154015401,0.026402640264026403,0.0242024202420242,0.014301430143014302,0.030803080308030802,0.027502750275027504,0.0176017601760176,0.0242024202420242
S7_D7 hbo,0.030803080308030802,0.0,0.0187018701870187,0.022002200220022004,0.0242024202420242,0.028602860286028604,0.030803080308030802,0.027502750275027504,0.030803080308030802,0.0165016501650165,0.0242024202420242,0.025302530253025302,0.0187018701870187,0.0,0.030803080308030802,0.0,0.0,0.030803080308030802,0.0,0.0,0.0297029702970297,0.0297029702970297,0.027502750275027504,0.030803080308030802,0.030803080308030802,0.0297029702970297,0.0187018701870187,0.0,0.0,0.009900990099009901,0.0,0.0242024202420242,0.006600660066006601,0.022002200220022004,0.019801980198019802,0.0231023102310231,0.0,0.014301430143014302,0.026402640264026403,0.026402640264026403,0.022002200220022004,0.0242024202420242,0.022002200220022004,0.022002200220022004,0.015401540154015401,0.026402640264026403,0.0242024202420242,0.014301430143014302,0.030803080308030802,0.027502750275027504,0.0176017601760176,0.0242024202420242
S7_D8 hbo,0.029213483146067417,0.0,0.019101123595505618,0.02247191011235955,0.024719101123595506,0.029213483146067417,0.029213483146067417,0.028089887640449437,0.029213483146067417,0.016853932584269662,0.024719101123595506,0.025842696629213482,0.019101123595505618,0.0,0.029213483146067417,0.0,0.0,0.029213483146067417,0.0,0.0,0.029213483146067417,0.029213483146067417,0.028089887640449437,0.029213483146067417,0.029213483146067417,0.029213483146067417,0.019101123595505618,0.0,0.0,0.010112359550561797,0.0,0.024719101123595506,0.006741573033707865,0.02247191011235955,0.020224719101123594,0.02359550561797753,0.0,0.014606741573033709,0.02696629213483146,0.02696629213483146,0.02247191011235955,0.024719101123595506,0.02247191011235955,0.02247191011235955,0.015730337078651686,0.02696629213483146,0.024719101123595506,0.014606741573033709,0.029213483146067417,0.028089887640449437,0.017977528089887642,0.024719101123595506
S8_D6 hbo,0.03172866520787746,0.0,0.018599562363238512,0.02188183807439825,0.024070021881838075,0.028446389496717725,0.03172866520787746,0.02735229759299781,0.03172866520787746,0.016411378555798686,0.024070021881838075,0.02516411378555799,0.018599562363238512,0.0,0.03172866520787746,0.0,0.0,0.03172866520787746,0.0,0.0,0.02954048140043764,0.02954048140043764,0.02735229759299781,0.030634573304157548,0.030634573304157548,0.02954048140043764,0.018599562363238512,0.0,0.0,0.009846827133479213,0.0,0.024070021881838075,0.006564551422319475,0.02188183807439825,0.019693654266958426,0.022975929978118162,0.0,0.014223194748358862,0.0262582056892779,0.0262582056892779,0.02188183807439825,0.024070021881838075,0.02188183807439825,0.02188183807439825,0.015317286652078774,0.0262582056892779,0.024070021881838075,0.014223194748358862,0.030634573304157548,0.02735229759299781,0.0175054704595186,0.024070021881838075
S8_D8 hbo,0.03172866520787746,0.0,0.018599562363238512,0.02188183807439825,0.024070021881838075,0.028446389496717725,0.03172866520787746,0.02735229759299781,0.03172866520787746,0.016411378555798686,0.024070021881838075,0.02516411378555799,0.018599562363238512,0.0,0.03172866520787746,0.0,0.0,0.03172866520787746,0.0,0.0,0.02954048140043764,0.02954048140043764,0.02735229759299781,0.030634573304157548,0.030634573304157548,0.02954048140043764,0.018599562363238512,0.0,0.0,0.009846827133479213,0.0,0.024070021881838075,0.006564551422319475,0.02188183807439825,0.019693654266958426,0.022975929978118162,0.0,0.014223194748358862,0.0262582056892779,0.0262582056892779,0.02188183807439825,0.024070021881838075,0.02188183807439825,0.02188183807439825,0.015317286652078774,0.0262582056892779,0.024070021881838075,0.014223194748358862,0.030634573304157548,0.02735229759299781,0.0175054704595186,0.024070021881838075
S8_D15 hbo,0.030803080308030802,0.0,0.0187018701870187,0.022002200220022004,0.0242024202420242,0.028602860286028604,0.030803080308030802,0.027502750275027504,0.030803080308030802,0.0165016501650165,0.0242024202420242,0.025302530253025302,0.0187018701870187,0.0,0.030803080308030802,0.0,0.0,0.030803080308030802,0.0,0.0,0.0297029702970297,0.0297029702970297,0.027502750275027504,0.030803080308030802,0.030803080308030802,0.0297029702970297,0.0187018701870187,0.0,0.0,0.009900990099009901,0.0,0.0242024202420242,0.006600660066006601,0.022002200220022004,0.019801980198019802,0.0231023102310231,0.0,0.014301430143014302,0.026402640264026403,0.026402640264026403,0.022002200220022004,0.0242024202420242,0.022002200220022004,0.022002200220022004,0.015401540154015401,0.026402640264026403,0.0242024202420242,0.014301430143014302,0.030803080308030802,0.027502750275027504,0.0176017601760176,0.0242024202420242
S9_D2 hbo,0.025245441795231416,0.0,0.023842917251051893,0.025245441795231416,0.025245441795231416,0.025245441795231416,0.025245441795231416,0.025245441795231416,0.025245441795231416,0.021037868162692847,0.025245441795231416,0.025245441795231416,0.023842917251051893,0.0,0.025245441795231416,0.0,0.0,0.025245441795231416,0.0,0.0,0.025245441795231416,0.025245441795231416,0.025245441795231416,0.025245441795231416,0.025245441795231416,0.025245441795231416,0.023842917251051893,0.0,0.0,0.012622720897615708,0.0,0.025245441795231416,0.008415147265077139,0.025245441795231416,0.025245441795231416,0.025245441795231416,0.0,0.0182328190743338,0.025245441795231416,0.025245441795231416,0.025245441795231416,0.025245441795231416,0.025245441795231416,0.025245441795231416,0.019635343618513323,0.025245441795231416,0.025245441795231416,0.0182328190743338,0.025245441795231416,0.025245441795231416,0.02244039270687237,0.025245441795231416
S9_D9 hbo,0.0,0.0,0.0,0.0,0.0,0.0,0.0,0.0,0.0,0.0,0.0,0.0,0.0,0.0,0.0,0.0,0.0,0.0,0.0,0.0,0.0,0.0,0.0,0.0,0.0,0.0,0.0,0.0,0.0,0.0,0.0,0.0,0.0,0.0,0.0,0.0,0.0,0.0,0.0,0.0,0.0,0.0,0.0,0.0,0.0,0.0,0.0,0.0,0.0,0.0,0.0,0.0
S9_D11 hbo,0.0,0.0,0.0,0.0,0.0,0.0,0.0,0.0,0.0,0.0,0.0,0.0,0.0,0.0,0.0,0.0,0.0,0.0,0.0,0.0,0.0,0.0,0.0,0.0,0.0,0.0,0.0,0.0,0.0,0.0,0.0,0.0,0.0,0.0,0.0,0.0,0.0,0.0,0.0,0.0,0.0,0.0,0.0,0.0,0.0,0.0,0.0,0.0,0.0,0.0,0.0,0.0
S10_D9 hbo,0.024096385542168676,0.0,0.024096385542168676,0.024096385542168676,0.024096385542168676,0.024096385542168676,0.024096385542168676,0.024096385542168676,0.024096385542168676,0.024096385542168676,0.024096385542168676,0.024096385542168676,0.024096385542168676,0.0,0.024096385542168676,0.0,0.0,0.024096385542168676,0.0,0.0,0.024096385542168676,0.024096385542168676,0.024096385542168676,0.024096385542168676,0.024096385542168676,0.024096385542168676,0.024096385542168676,0.0,0.0,0.021686746987951807,0.0,0.024096385542168676,0.014457831325301205,0.024096385542168676,0.024096385542168676,0.024096385542168676,0.0,0.024096385542168676,0.024096385542168676,0.024096385542168676,0.024096385542168676,0.024096385542168676,0.024096385542168676,0.024096385542168676,0.024096385542168676,0.024096385542168676,0.024096385542168676,0.024096385542168676,0.024096385542168676,0.024096385542168676,0.024096385542168676,0.024096385542168676
S10_D10 hbo,0.0,0.0,0.0,0.0,0.0,0.0,0.0,0.0,0.0,0.0,0.0,0.0,0.0,0.0,0.0,0.0,0.0,0.0,0.0,0.0,0.0,0.0,0.0,0.0,0.0,0.0,0.0,0.0,0.0,0.0,0.0,0.0,0.0,0.0,0.0,0.0,0.0,0.0,0.0,0.0,0.0,0.0,0.0,0.0,0.0,0.0,0.0,0.0,0.0,0.0,0.0,0.0
S10_D12 hbo,0.027218934911242602,0.0,0.020118343195266272,0.023668639053254437,0.02603550295857988,0.027218934911242602,0.027218934911242602,0.027218934911242602,0.027218934911242602,0.01775147928994083,0.02603550295857988,0.027218934911242602,0.020118343195266272,0.0,0.027218934911242602,0.0,0.0,0.027218934911242602,0.0,0.0,0.027218934911242602,0.027218934911242602,0.027218934911242602,0.027218934911242602,0.027218934911242602,0.027218934911242602,0.020118343195266272,0.0,0.0,0.010650887573964497,0.0,0.02603550295857988,0.007100591715976331,0.023668639053254437,0.021301775147928994,0.02485207100591716,0.0,0.015384615384615385,0.027218934911242602,0.027218934911242602,0.023668639053254437,0.02603550295857988,0.023668639053254437,0.023668639053254437,0.016568047337278107,0.027218934911242602,0.02603550295857988,0.015384615384615385,0.027218934911242602,0.027218934911242602,0.01893491124260355,0.02603550295857988
S11_D9 hbo,0.023890784982935155,0.0,0.023890784982935155,0.023890784982935155,0.023890784982935155,0.023890784982935155,0.023890784982935155,0.023890784982935155,0.023890784982935155,0.023890784982935155,0.023890784982935155,0.023890784982935155,0.023890784982935155,0.0,0.023890784982935155,0.0,0.0,0.023890784982935155,0.0,0.0,0.023890784982935155,0.023890784982935155,0.023890784982935155,0.023890784982935155,0.023890784982935155,0.023890784982935155,0.023890784982935155,0.0,0.0,0.023890784982935155,0.0,0.023890784982935155,0.020477815699658702,0.023890784982935155,0.023890784982935155,0.023890784982935155,0.0,0.023890784982935155,0.023890784982935155,0.023890784982935155,0.023890784982935155,0.023890784982935155,0.023890784982935155,0.023890784982935155,0.023890784982935155,0.023890784982935155,0.023890784982935155,0.023890784982935155,0.023890784982935155,0.023890784982935155,0.023890784982935155,0.023890784982935155
S11_D11 hbo,0.026217228464419477,0.0,0.02122347066167291,0.024968789013732832,0.026217228464419477,0.026217228464419477,0.026217228464419477,0.026217228464419477,0.026217228464419477,0.018726591760299626,0.026217228464419477,0.026217228464419477,0.02122347066167291,0.0,0.026217228464419477,0.0,0.0,0.026217228464419477,0.0,0.0,0.026217228464419477,0.026217228464419477,0.026217228464419477,0.026217228464419477,0.026217228464419477,0.026217228464419477,0.02122347066167291,0.0,0.0,0.011235955056179775,0.0,0.026217228464419477,0.00749063670411985,0.024968789013732832,0.02247191011235955,0.026217228464419477,0.0,0.016229712858926344,0.026217228464419477,0.026217228464419477,0.024968789013732832,0.026217228464419477,0.024968789013732832,0.024968789013732832,0.017478152309612985,0.026217228464419477,0.026217228464419477,0.016229712858926344,0.026217228464419477,0.026217228464419477,0.019975031210986267,0.026217228464419477
S11_D12 hbo,0.025537634408602152,0.0,0.0228494623655914,0.025537634408602152,0.025537634408602152,0.025537634408602152,0.025537634408602152,0.025537634408602152,0.025537634408602152,0.020161290322580645,0.025537634408602152,0.025537634408602152,0.0228494623655914,0.0,0.025537634408602152,0.0,0.0,0.025537634408602152,0.0,0.0,0.025537634408602152,0.025537634408602152,0.025537634408602152,0.025537634408602152,0.025537634408602152,0.025537634408602152,0.0228494623655914,0.0,0.0,0.012096774193548387,0.0,0.025537634408602152,0.008064516129032258,0.025537634408602152,0.024193548387096774,0.025537634408602152,0.0,0.01747311827956989,0.025537634408602152,0.025537634408602152,0.025537634408602152,0.025537634408602152,0.025537634408602152,0.025537634408602152,0.01881720430107527,0.025537634408602152,0.025537634408602152,0.01747311827956989,0.025537634408602152,0.025537634408602152,0.021505376344086023,0.025537634408602152
S11_D13 hbo,0.026634382566585957,0.0,0.020581113801452784,0.024213075060532687,0.026634382566585957,0.026634382566585957,0.026634382566585957,0.026634382566585957,0.026634382566585957,0.018159806295399514,0.026634382566585957,0.026634382566585957,0.020581113801452784,0.0,0.026634382566585957,0.0,0.0,0.026634382566585957,0.0,0.0,0.026634382566585957,0.026634382566585957,0.026634382566585957,0.026634382566585957,0.026634382566585957,0.026634382566585957,0.020581113801452784,0.0,0.0,0.010895883777239709,0.0,0.026634382566585957,0.007263922518159807,0.024213075060532687,0.021791767554479417,0.025423728813559324,0.0,0.015738498789346248,0.026634382566585957,0.026634382566585957,0.024213075060532687,0.026634382566585957,0.024213075060532687,0.024213075060532687,0.01694915254237288,0.026634382566585957,0.026634382566585957,0.015738498789346248,0.026634382566585957,0.026634382566585957,0.01937046004842615,0.026634382566585957
S12_D10 hbo,0.0,0.0,0.0,0.0,0.0,0.0,0.0,0.0,0.0,0.0,0.0,0.0,0.0,0.0,0.0,0.0,0.0,0.0,0.0,0.0,0.0,0.0,0.0,0.0,0.0,0.0,0.0,0.0,0.0,0.0,0.0,0.0,0.0,0.0,0.0,0.0,0.0,0.0,0.0,0.0,0.0,0.0,0.0,0.0,0.0,0.0,0.0,0.0,0.0,0.0,0.0,0.0
S12_D12 hbo,0.02443280977312391,0.0,0.02443280977312391,0.02443280977312391,0.02443280977312391,0.02443280977312391,0.02443280977312391,0.02443280977312391,0.02443280977312391,0.02443280977312391,0.02443280977312391,0.02443280977312391,0.02443280977312391,0.0,0.02443280977312391,0.0,0.0,0.02443280977312391,0.0,0.0,0.02443280977312391,0.02443280977312391,0.02443280977312391,0.02443280977312391,0.02443280977312391,0.02443280977312391,0.02443280977312391,0.0,0.0,0.015706806282722512,0.0,0.02443280977312391,0.010471204188481676,0.02443280977312391,0.02443280977312391,0.02443280977312391,0.0,0.02268760907504363,0.02443280977312391,0.02443280977312391,0.02443280977312391,0.02443280977312391,0.02443280977312391,0.02443280977312391,0.02443280977312391,0.02443280977312391,0.02443280977312391,0.02268760907504363,0.02443280977312391,0.02443280977312391,0.02443280977312391,0.02443280977312391
S12_D14 hbo,0.02847380410022779,0.0,0.0193621867881549,0.022779043280182234,0.025056947608200455,0.02847380410022779,0.02847380410022779,0.02847380410022779,0.02847380410022779,0.017084282460136675,0.025056947608200455,0.02619589977220957,0.0193621867881549,0.0,0.02847380410022779,0.0,0.0,0.02847380410022779,0.0,0.0,0.02847380410022779,0.02847380410022779,0.02847380410022779,0.02847380410022779,0.02847380410022779,0.02847380410022779,0.0193621867881549,0.0,0.0,0.010250569476082005,0.0,0.025056947608200455,0.00683371298405467,0.022779043280182234,0.02050113895216401,0.023917995444191344,0.0,0.014806378132118452,0.02733485193621868,0.02733485193621868,0.022779043280182234,0.025056947608200455,0.022779043280182234,0.022779043280182234,0.015945330296127564,0.02733485193621868,0.025056947608200455,0.014806378132118452,0.02847380410022779,0.02847380410022779,0.018223234624145785,0.025056947608200455
S13_D6 hbo,0.02847380410022779,0.0,0.0193621867881549,0.022779043280182234,0.025056947608200455,0.02847380410022779,0.02847380410022779,0.02847380410022779,0.02847380410022779,0.017084282460136675,0.025056947608200455,0.02619589977220957,0.0193621867881549,0.0,0.02847380410022779,0.0,0.0,0.02847380410022779,0.0,0.0,0.02847380410022779,0.02847380410022779,0.02847380410022779,0.02847380410022779,0.02847380410022779,0.02847380410022779,0.0193621867881549,0.0,0.0,0.010250569476082005,0.0,0.025056947608200455,0.00683371298405467,0.022779043280182234,0.02050113895216401,0.023917995444191344,0.0,0.014806378132118452,0.02733485193621868,0.02733485193621868,0.022779043280182234,0.025056947608200455,0.022779043280182234,0.022779043280182234,0.015945330296127564,0.02733485193621868,0.025056947608200455,0.014806378132118452,0.02847380410022779,0.02847380410022779,0.018223234624145785,0.025056947608200455
S13_D11 hbo,0.026217228464419477,0.0,0.02122347066167291,0.024968789013732832,0.026217228464419477,0.026217228464419477,0.026217228464419477,0.026217228464419477,0.026217228464419477,0.018726591760299626,0.026217228464419477,0.026217228464419477,0.02122347066167291,0.0,0.026217228464419477,0.0,0.0,0.026217228464419477,0.0,0.0,0.026217228464419477,0.026217228464419477,0.026217228464419477,0.026217228464419477,0.026217228464419477,0.026217228464419477,0.02122347066167291,0.0,0.0,0.011235955056179775,0.0,0.026217228464419477,0.00749063670411985,0.024968789013732832,0.02247191011235955,0.026217228464419477,0.0,0.016229712858926344,0.026217228464419477,0.026217228464419477,0.024968789013732832,0.026217228464419477,0.024968789013732832,0.024968789013732832,0.017478152309612985,0.026217228464419477,0.026217228464419477,0.016229712858926344,0.026217228464419477,0.026217228464419477,0.019975031210986267,0.026217228464419477
S13_D13 hbo,0.027218934911242602,0.0,0.020118343195266272,0.023668639053254437,0.02603550295857988,0.027218934911242602,0.027218934911242602,0.027218934911242602,0.027218934911242602,0.01775147928994083,0.02603550295857988,0.027218934911242602,0.020118343195266272,0.0,0.027218934911242602,0.0,0.0,0.027218934911242602,0.0,0.0,0.027218934911242602,0.027218934911242602,0.027218934911242602,0.027218934911242602,0.027218934911242602,0.027218934911242602,0.020118343195266272,0.0,0.0,0.010650887573964497,0.0,0.02603550295857988,0.007100591715976331,0.023668639053254437,0.021301775147928994,0.02485207100591716,0.0,0.015384615384615385,0.027218934911242602,0.027218934911242602,0.023668639053254437,0.02603550295857988,0.023668639053254437,0.023668639053254437,0.016568047337278107,0.027218934911242602,0.02603550295857988,0.015384615384615385,0.027218934911242602,0.027218934911242602,0.01893491124260355,0.02603550295857988
S13_D15 hbo,0.026217228464419477,0.0,0.02122347066167291,0.024968789013732832,0.026217228464419477,0.026217228464419477,0.026217228464419477,0.026217228464419477,0.026217228464419477,0.018726591760299626,0.026217228464419477,0.026217228464419477,0.02122347066167291,0.0,0.026217228464419477,0.0,0.0,0.026217228464419477,0.0,0.0,0.026217228464419477,0.026217228464419477,0.026217228464419477,0.026217228464419477,0.026217228464419477,0.026217228464419477,0.02122347066167291,0.0,0.0,0.011235955056179775,0.0,0.026217228464419477,0.00749063670411985,0.024968789013732832,0.02247191011235955,0.026217228464419477,0.0,0.016229712858926344,0.026217228464419477,0.026217228464419477,0.024968789013732832,0.026217228464419477,0.024968789013732832,0.024968789013732832,0.017478152309612985,0.026217228464419477,0.026217228464419477,0.016229712858926344,0.026217228464419477,0.026217228464419477,0.019975031210986267,0.026217228464419477
S14_D12 hbo,0.026217228464419477,0.0,0.02122347066167291,0.024968789013732832,0.026217228464419477,0.026217228464419477,0.026217228464419477,0.026217228464419477,0.026217228464419477,0.018726591760299626,0.026217228464419477,0.026217228464419477,0.02122347066167291,0.0,0.026217228464419477,0.0,0.0,0.026217228464419477,0.0,0.0,0.026217228464419477,0.026217228464419477,0.026217228464419477,0.026217228464419477,0.026217228464419477,0.026217228464419477,0.02122347066167291,0.0,0.0,0.011235955056179775,0.0,0.026217228464419477,0.00749063670411985,0.024968789013732832,0.02247191011235955,0.026217228464419477,0.0,0.016229712858926344,0.026217228464419477,0.026217228464419477,0.024968789013732832,0.026217228464419477,0.024968789013732832,0.024968789013732832,0.017478152309612985,0.026217228464419477,0.026217228464419477,0.016229712858926344,0.026217228464419477,0.026217228464419477,0.019975031210986267,0.026217228464419477
S14_D13 hbo,0.02459016393442623,0.0,0.02459016393442623,0.02459016393442623,0.02459016393442623,0.02459016393442623,0.02459016393442623,0.02459016393442623,0.02459016393442623,0.02459016393442623,0.02459016393442623,0.02459016393442623,0.02459016393442623,0.0,0.02459016393442623,0.0,0.0,0.02459016393442623,0.0,0.0,0.02459016393442623,0.02459016393442623,0.02459016393442623,0.02459016393442623,0.02459016393442623,0.02459016393442623,0.02459016393442623,0.0,0.0,0.014754098360655738,0.0,0.02459016393442623,0.009836065573770493,0.02459016393442623,0.02459016393442623,0.02459016393442623,0.0,0.021311475409836064,0.02459016393442623,0.02459016393442623,0.02459016393442623,0.02459016393442623,0.02459016393442623,0.02459016393442623,0.022950819672131147,0.02459016393442623,0.02459016393442623,0.021311475409836064,0.02459016393442623,0.02459016393442623,0.02459016393442623,0.02459016393442623
S14_D14 hbo,0.02847380410022779,0.0,0.0193621867881549,0.022779043280182234,0.025056947608200455,0.02847380410022779,0.02847380410022779,0.02847380410022779,0.02847380410022779,0.017084282460136675,0.025056947608200455,0.02619589977220957,0.0193621867881549,0.0,0.02847380410022779,0.0,0.0,0.02847380410022779,0.0,0.0,0.02847380410022779,0.02847380410022779,0.02847380410022779,0.02847380410022779,0.02847380410022779,0.02847380410022779,0.0193621867881549,0.0,0.0,0.010250569476082005,0.0,0.025056947608200455,0.00683371298405467,0.022779043280182234,0.02050113895216401,0.023917995444191344,0.0,0.014806378132118452,0.02733485193621868,0.02733485193621868,0.022779043280182234,0.025056947608200455,0.022779043280182234,0.022779043280182234,0.015945330296127564,0.02733485193621868,0.025056947608200455,0.014806378132118452,0.02847380410022779,0.02847380410022779,0.018223234624145785,0.025056947608200455
S14_D16 hbo,0.027218934911242602,0.0,0.020118343195266272,0.023668639053254437,0.02603550295857988,0.027218934911242602,0.027218934911242602,0.027218934911242602,0.027218934911242602,0.01775147928994083,0.02603550295857988,0.027218934911242602,0.020118343195266272,0.0,0.027218934911242602,0.0,0.0,0.027218934911242602,0.0,0.0,0.027218934911242602,0.027218934911242602,0.027218934911242602,0.027218934911242602,0.027218934911242602,0.027218934911242602,0.020118343195266272,0.0,0.0,0.010650887573964497,0.0,0.02603550295857988,0.007100591715976331,0.023668639053254437,0.021301775147928994,0.02485207100591716,0.0,0.015384615384615385,0.027218934911242602,0.027218934911242602,0.023668639053254437,0.02603550295857988,0.023668639053254437,0.023668639053254437,0.016568047337278107,0.027218934911242602,0.02603550295857988,0.015384615384615385,0.027218934911242602,0.027218934911242602,0.01893491124260355,0.02603550295857988
S15_D13 hbo,0.02443280977312391,0.0,0.02443280977312391,0.02443280977312391,0.02443280977312391,0.02443280977312391,0.02443280977312391,0.02443280977312391,0.02443280977312391,0.02443280977312391,0.02443280977312391,0.02443280977312391,0.02443280977312391,0.0,0.02443280977312391,0.0,0.0,0.02443280977312391,0.0,0.0,0.02443280977312391,0.02443280977312391,0.02443280977312391,0.02443280977312391,0.02443280977312391,0.02443280977312391,0.02443280977312391,0.0,0.0,0.015706806282722512,0.0,0.02443280977312391,0.010471204188481676,0.02443280977312391,0.02443280977312391,0.02443280977312391,0.0,0.02268760907504363,0.02443280977312391,0.02443280977312391,0.02443280977312391,0.02443280977312391,0.02443280977312391,0.02443280977312391,0.02443280977312391,0.02443280977312391,0.02443280977312391,0.02268760907504363,0.02443280977312391,0.02443280977312391,0.02443280977312391,0.02443280977312391
S15_D15 hbo,0.03172866520787746,0.0,0.018599562363238512,0.02188183807439825,0.024070021881838075,0.028446389496717725,0.03172866520787746,0.02735229759299781,0.03172866520787746,0.016411378555798686,0.024070021881838075,0.02516411378555799,0.018599562363238512,0.0,0.03172866520787746,0.0,0.0,0.03172866520787746,0.0,0.0,0.02954048140043764,0.02954048140043764,0.02735229759299781,0.030634573304157548,0.030634573304157548,0.02954048140043764,0.018599562363238512,0.0,0.0,0.009846827133479213,0.0,0.024070021881838075,0.006564551422319475,0.02188183807439825,0.019693654266958426,0.022975929978118162,0.0,0.014223194748358862,0.0262582056892779,0.0262582056892779,0.02188183807439825,0.024070021881838075,0.02188183807439825,0.02188183807439825,0.015317286652078774,0.0262582056892779,0.024070021881838075,0.014223194748358862,0.030634573304157548,0.02735229759299781,0.0175054704595186,0.024070021881838075
S15_D16 hbo,0.029213483146067417,0.0,0.019101123595505618,0.02247191011235955,0.024719101123595506,0.029213483146067417,0.029213483146067417,0.028089887640449437,0.029213483146067417,0.016853932584269662,0.024719101123595506,0.025842696629213482,0.019101123595505618,0.0,0.029213483146067417,0.0,0.0,0.029213483146067417,0.0,0.0,0.029213483146067417,0.029213483146067417,0.028089887640449437,0.029213483146067417,0.029213483146067417,0.029213483146067417,0.019101123595505618,0.0,0.0,0.010112359550561797,0.0,0.024719101123595506,0.006741573033707865,0.02247191011235955,0.020224719101123594,0.02359550561797753,0.0,0.014606741573033709,0.02696629213483146,0.02696629213483146,0.02247191011235955,0.024719101123595506,0.02247191011235955,0.02247191011235955,0.015730337078651686,0.02696629213483146,0.024719101123595506,0.014606741573033709,0.029213483146067417,0.028089887640449437,0.017977528089887642,0.024719101123595506
S16_D14 hbo,0.024963289280469897,0.0,0.024963289280469897,0.024963289280469897,0.024963289280469897,0.024963289280469897,0.024963289280469897,0.024963289280469897,0.024963289280469897,0.022026431718061675,0.024963289280469897,0.024963289280469897,0.024963289280469897,0.0,0.024963289280469897,0.0,0.0,0.024963289280469897,0.0,0.0,0.024963289280469897,0.024963289280469897,0.024963289280469897,0.024963289280469897,0.024963289280469897,0.024963289280469897,0.024963289280469897,0.0,0.0,0.013215859030837005,0.0,0.024963289280469897,0.00881057268722467,0.024963289280469897,0.024963289280469897,0.024963289280469897,0.0,0.01908957415565345,0.024963289280469897,0.024963289280469897,0.024963289280469897,0.024963289280469897,0.024963289280469897,0.024963289280469897,0.020558002936857563,0.024963289280469897,0.024963289280469897,0.01908957415565345,0.024963289280469897,0.024963289280469897,0.023494860499265784,0.024963289280469897
S16_D16 hbo,0.027218934911242602,0.0,0.020118343195266272,0.023668639053254437,0.02603550295857988,0.027218934911242602,0.027218934911242602,0.027218934911242602,0.027218934911242602,0.01775147928994083,0.02603550295857988,0.027218934911242602,0.020118343195266272,0.0,0.027218934911242602,0.0,0.0,0.027218934911242602,0.0,0.0,0.027218934911242602,0.027218934911242602,0.027218934911242602,0.027218934911242602,0.027218934911242602,0.027218934911242602,0.020118343195266272,0.0,0.0,0.010650887573964497,0.0,0.02603550295857988,0.007100591715976331,0.023668639053254437,0.021301775147928994,0.02485207100591716,0.0,0.015384615384615385,0.027218934911242602,0.027218934911242602,0.023668639053254437,0.02603550295857988,0.023668639053254437,0.023668639053254437,0.016568047337278107,0.027218934911242602,0.02603550295857988,0.015384615384615385,0.027218934911242602,0.027218934911242602,0.01893491124260355,0.02603550295857988
