,S1_D1 hbo,S1_D3 hbo,S2_D1 hbo,S2_D2 hbo,S2_D4 hbo,S3_D1 hbo,S3_D3 hbo,S3_D4 hbo,S3_D5 hbo,S4_D2 hbo,S4_D4 hbo,S4_D6 hbo,S4_D11 hbo,S5_D3 hbo,S5_D5 hbo,S5_D7 hbo,S6_D4 hbo,S6_D5 hbo,S6_D6 hbo,S6_D8 hbo,S7_D5 hbo,S7_D7 hbo,S7_D8 hbo,S8_D6 hbo,S8_D8 hbo,S8_D15 hbo,S9_D2 hbo,S9_D9 hbo,S9_D11 hbo,S10_D9 hbo,S10_D10 hbo,S10_D12 hbo,S11_D9 hbo,S11_D11 hbo,S11_D12 hbo,S11_D13 hbo,S12_D10 hbo,S12_D12 hbo,S12_D14 hbo,S13_D6 hbo,S13_D11 hbo,S13_D13 hbo,S13_D15 hbo,S14_D12 hbo,S14_D13 hbo,S14_D14 hbo,S14_D16 hbo,S15_D13 hbo,S15_D15 hbo,S15_D16 hbo,S16_D14 hbo,S16_D16 hbo
S1_D1 hbo,0.08118081180811808,0.0,0.05904059040590406,0.0,0.0,0.06642066420664207,0.01845018450184502,0.0,0.04797047970479705,0.01845018450184502,0.01845018450184502,0.0,0.0,0.0036900369003690036,0.04059040590405904,0.01845018450184502,0.0,0.0,0.02214022140221402,0.0,0.014760147601476014,0.0,0.033210332103321034,0.0,0.01107011070110701,0.0,0.01845018450184502,0.01845018450184502,0.0,0.04797047970479705,0.01107011070110701,0.0,0.04428044280442804,0.0,0.05166051660516605,0.01107011070110701,0.04428044280442804,0.01107011070110701,0.007380073800738007,0.02952029520295203,0.0,0.02952029520295203,0.02214022140221402,0.007380073800738007,0.03690036900369004,0.0036900369003690036,0.04428044280442804,0.0,0.0,0.03690036900369004,0.033210332103321034,0.03690036900369004
S1_D3 hbo,0.007792207792207792,0.10909090909090909,0.0025974025974025974,0.0025974025974025974,0.012987012987012988,0.0025974025974025974,0.03896103896103896,0.0,0.015584415584415584,0.0,0.0025974025974025974,0.0,0.0,0.07012987012987013,0.0025974025974025974,0.02077922077922078,0.03116883116883117,0.0,0.0,0.015584415584415584,0.023376623376623377,0.025974025974025976,0.033766233766233764,0.0,0.0,0.0,0.023376623376623377,0.007792207792207792,0.007792207792207792,0.0,0.03896103896103896,0.012987012987012988,0.033766233766233764,0.015584415584415584,0.0,0.03896103896103896,0.023376623376623377,0.03896103896103896,0.03896103896103896,0.03116883116883117,0.0,0.01818181818181818,0.005194805194805195,0.025974025974025976,0.01038961038961039,0.03896103896103896,0.02077922077922078,0.05194805194805195,0.0,0.02857142857142857,0.03636363636363636,0.033766233766233764
S2_D1 hbo,0.08878504672897196,0.0,0.102803738317757,0.0,0.0,0.08878504672897196,0.018691588785046728,0.028037383177570093,0.0514018691588785,0.028037383177570093,0.004672897196261682,0.0,0.0,0.004672897196261682,0.037383177570093455,0.02336448598130841,0.0,0.0,0.018691588785046728,0.0,0.018691588785046728,0.0,0.028037383177570093,0.0,0.014018691588785047,0.0,0.02336448598130841,0.02336448598130841,0.0,0.04672897196261682,0.004672897196261682,0.0,0.037383177570093455,0.0,0.0514018691588785,0.0,0.037383177570093455,0.004672897196261682,0.004672897196261682,0.018691588785046728,0.0,0.018691588785046728,0.009345794392523364,0.009345794392523364,0.037383177570093455,0.0,0.037383177570093455,0.0,0.0,0.028037383177570093,0.02336448598130841,0.028037383177570093
S2_D2 hbo,0.0,0.03125,0.0,0.28125,0.0,0.0,0.0,0.0,0.0,0.0,0.0,0.0,0.0,0.03125,0.0,0.0,0.15625,0.0,0.0,0.0,0.0,0.03125,0.0,0.0,0.0,0.0,0.03125,0.0,0.0,0.0,0.0,0.0,0.0,0.03125,0.0,0.21875,0.0,0.0,0.0,0.03125,0.0,0.0,0.125,0.0,0.0,0.0,0.0,0.03125,0.0,0.0,0.0,0.0
S2_D4 hbo,0.006535947712418301,0.0392156862745098,0.006535947712418301,0.0,0.13725490196078433,0.006535947712418301,0.0392156862745098,0.0,0.0196078431372549,0.0,0.0,0.0,0.013071895424836602,0.0457516339869281,0.006535947712418301,0.0196078431372549,0.026143790849673203,0.0,0.0,0.0,0.0457516339869281,0.0,0.058823529411764705,0.026143790849673203,0.0,0.0,0.026143790849673203,0.026143790849673203,0.0,0.0,0.0457516339869281,0.0392156862745098,0.05228758169934641,0.0,0.0,0.0,0.013071895424836602,0.0457516339869281,0.0457516339869281,0.0,0.0196078431372549,0.013071895424836602,0.0,0.0457516339869281,0.0,0.0457516339869281,0.013071895424836602,0.0,0.0,0.013071895424836602,0.032679738562091505,0.026143790849673203
S3_D1 hbo,0.09223300970873786,0.0,0.0825242718446602,0.0,0.0,0.09223300970873786,0.019417475728155338,0.0,0.05339805825242718,0.03398058252427184,0.0048543689320388345,0.0,0.0,0.0048543689320388345,0.038834951456310676,0.024271844660194174,0.0,0.0,0.019417475728155338,0.0,0.019417475728155338,0.0,0.02912621359223301,0.0,0.014563106796116505,0.0,0.024271844660194174,0.024271844660194174,0.0,0.05339805825242718,0.0048543689320388345,0.0,0.038834951456310676,0.0,0.05825242718446602,0.0,0.038834951456310676,0.0048543689320388345,0.0048543689320388345,0.019417475728155338,0.0,0.019417475728155338,0.009708737864077669,0.009708737864077669,0.038834951456310676,0.0,0.038834951456310676,0.0,0.0,0.02912621359223301,0.024271844660194174,0.02912621359223301
S3_D3 hbo,0.022222222222222223,0.02962962962962963,0.014814814814814815,0.0,0.009876543209876543,0.014814814814814815,0.04691358024691358,0.0,0.02962962962962963,0.0024691358024691358,0.0049382716049382715,0.0,0.0,0.0345679012345679,0.022222222222222223,0.037037037037037035,0.009876543209876543,0.0,0.0,0.014814814814814815,0.022222222222222223,0.0,0.04197530864197531,0.0,0.0,0.0,0.014814814814814815,0.019753086419753086,0.0,0.007407407407407408,0.044444444444444446,0.012345679012345678,0.04197530864197531,0.0024691358024691358,0.009876543209876543,0.024691358024691357,0.04197530864197531,0.044444444444444446,0.04197530864197531,0.027160493827160494,0.0,0.027160493827160494,0.007407407407407408,0.03209876543209877,0.009876543209876543,0.03950617283950617,0.02962962962962963,0.019753086419753086,0.0,0.04197530864197531,0.04938271604938271,0.05185185185185185
S3_D4 hbo,0.0,0.0,0.35714285714285715,0.0,0.0,0.0,0.0,0.6428571428571429,0.0,0.0,0.0,0.0,0.0,0.0,0.0,0.0,0.0,0.0,0.0,0.0,0.0,0.0,0.0,0.0,0.0,0.0,0.0,0.0,0.0,0.0,0.0,0.0,0.0,0.0,0.0,0.0,0.0,0.0,0.0,0.0,0.0,0.0,0.0,0.0,0.0,0.0,0.0,0.0,0.0,0.0,0.0,0.0
S3_D5 hbo,0.055232558139534885,0.005813953488372093,0.0436046511627907,0.0,0.0029069767441860465,0.0436046511627907,0.023255813953488372,0.0,0.06395348837209303,0.011627906976744186,0.014534883720930232,0.0,0.0,0.011627906976744186,0.0436046511627907,0.023255813953488372,0.005813953488372093,0.014534883720930232,0.023255813953488372,0.0,0.02616279069767442,0.011627906976744186,0.03488372093023256,0.0,0.0029069767441860465,0.0,0.020348837209302327,0.02616279069767442,0.0,0.02616279069767442,0.01744186046511628,0.0029069767441860465,0.0436046511627907,0.0,0.029069767441860465,0.011627906976744186,0.040697674418604654,0.01744186046511628,0.014534883720930232,0.02616279069767442,0.0,0.03197674418604651,0.01744186046511628,0.011627906976744186,0.03197674418604651,0.011627906976744186,0.0436046511627907,0.0029069767441860465,0.0,0.0377906976744186,0.03488372093023256,0.0377906976744186
S4_D2 hbo,0.047619047619047616,0.0,0.0380952380952381,0.0,0.0,0.047619047619047616,0.01904761904761905,0.0,0.02857142857142857,0.21904761904761905,0.0,0.0380952380952381,0.0,0.0,0.0380952380952381,0.0380952380952381,0.0,0.0,0.009523809523809525,0.047619047619047616,0.0,0.0,0.0,0.0,0.0380952380952381,0.0,0.0,0.0,0.0,0.0380952380952381,0.0380952380952381,0.01904761904761905,0.0,0.0,0.02857142857142857,0.0,0.0380952380952381,0.0380952380952381,0.0380952380952381,0.0,0.0,0.0,0.0,0.0380952380952381,0.0380952380952381,0.0380952380952381,0.0,0.0,0.0,0.0,0.0,0.0380952380952381
S4_D4 hbo,0.045454545454545456,0.0,0.02727272727272727,0.0,0.0,0.02727272727272727,0.0,0.0,0.02727272727272727,0.0,0.17272727272727273,0.0,0.0,0.0,0.03636363636363636,0.0,0.0,0.0,0.03636363636363636,0.0,0.0,0.0,0.01818181818181818,0.0,0.06363636363636363,0.0,0.0,0.0,0.0,0.03636363636363636,0.00909090909090909,0.01818181818181818,0.03636363636363636,0.03636363636363636,0.03636363636363636,0.01818181818181818,0.045454545454545456,0.00909090909090909,0.0,0.02727272727272727,0.0,0.03636363636363636,0.06363636363636363,0.0,0.05454545454545454,0.0,0.03636363636363636,0.0,0.0,0.02727272727272727,0.02727272727272727,0.02727272727272727
S4_D6 hbo,0.0,0.0,0.0,0.0,0.0,0.0,0.0,0.0,0.0,0.08333333333333333,0.0,0.6666666666666666,0.0,0.0,0.0,0.0,0.0,0.0,0.0,0.08333333333333333,0.125,0.0,0.0,0.0,0.0,0.0,0.0,0.0,0.0,0.0,0.0,0.0,0.0,0.0,0.0,0.041666666666666664,0.0,0.0,0.0,0.0,0.0,0.0,0.0,0.0,0.0,0.0,0.0,0.0,0.0,0.0,0.0,0.0
S4_D11 hbo,0.017543859649122806,0.0,0.0,0.0,0.017543859649122806,0.0,0.0,0.0,0.0,0.0,0.0,0.0,0.3684210526315789,0.0,0.0,0.0,0.0,0.10526315789473684,0.0,0.0,0.0,0.0,0.0,0.05263157894736842,0.0,0.05263157894736842,0.0,0.07017543859649122,0.21052631578947367,0.07017543859649122,0.0,0.017543859649122806,0.0,0.0,0.0,0.0,0.0,0.0,0.0,0.017543859649122806,0.0,0.0,0.0,0.0,0.0,0.0,0.0,0.0,0.0,0.0,0.0,0.0
S5_D3 hbo,0.012755102040816327,0.058673469387755105,0.007653061224489796,0.002551020408163265,0.017857142857142856,0.007653061224489796,0.04336734693877551,0.0,0.02040816326530612,0.0,0.002551020408163265,0.0,0.0,0.07397959183673469,0.007653061224489796,0.025510204081632654,0.012755102040816327,0.002551020408163265,0.0,0.015306122448979591,0.017857142857142856,0.01020408163265306,0.03316326530612245,0.0,0.0,0.0,0.02295918367346939,0.015306122448979591,0.00510204081632653,0.0,0.04591836734693878,0.017857142857142856,0.03316326530612245,0.01020408163265306,0.002551020408163265,0.03316326530612245,0.02806122448979592,0.04591836734693878,0.04591836734693878,0.03826530612244898,0.0,0.02295918367346939,0.00510204081632653,0.03571428571428571,0.00510204081632653,0.04336734693877551,0.02040816326530612,0.03826530612244898,0.0,0.03316326530612245,0.04081632653061224,0.03826530612244898
S5_D5 hbo,0.045627376425855515,0.0,0.03802281368821293,0.0,0.0,0.03802281368821293,0.022813688212927757,0.0,0.04182509505703422,0.011406844106463879,0.011406844106463879,0.0,0.0,0.0038022813688212928,0.06463878326996197,0.04182509505703422,0.0,0.011406844106463879,0.026615969581749048,0.0038022813688212928,0.019011406844106463,0.0076045627376425855,0.026615969581749048,0.0,0.0,0.0,0.019011406844106463,0.022813688212927757,0.0,0.03802281368821293,0.026615969581749048,0.011406844106463879,0.03802281368821293,0.0,0.04182509505703422,0.0038022813688212928,0.060836501901140684,0.026615969581749048,0.026615969581749048,0.022813688212927757,0.0,0.022813688212927757,0.015209125475285171,0.030418250950570342,0.015209125475285171,0.022813688212927757,0.03802281368821293,0.0,0.0,0.030418250950570342,0.026615969581749048,0.045627376425855515
S5_D7 hbo,0.02601156069364162,0.014450867052023121,0.02023121387283237,0.0,0.002890173410404624,0.02023121387283237,0.03757225433526012,0.0,0.031791907514450865,0.011560693641618497,0.002890173410404624,0.0,0.0,0.02023121387283237,0.03757225433526012,0.057803468208092484,0.005780346820809248,0.0,0.0,0.008670520231213872,0.017341040462427744,0.0,0.03757225433526012,0.0,0.0,0.0,0.017341040462427744,0.02023121387283237,0.0,0.011560693641618497,0.046242774566473986,0.011560693641618497,0.03757225433526012,0.0,0.014450867052023121,0.014450867052023121,0.06358381502890173,0.046242774566473986,0.04335260115606936,0.02601156069364162,0.0,0.028901734104046242,0.005780346820809248,0.04046242774566474,0.008670520231213872,0.04335260115606936,0.03468208092485549,0.011560693641618497,0.0,0.03757225433526012,0.03468208092485549,0.049132947976878616
S6_D4 hbo,0.013513513513513514,0.05405405405405406,0.013513513513513514,0.02702702702702703,0.013513513513513514,0.013513513513513514,0.02702702702702703,0.0,0.02702702702702703,0.0,0.0,0.0,0.0,0.0472972972972973,0.013513513513513514,0.02702702702702703,0.1891891891891892,0.0,0.033783783783783786,0.0,0.02702702702702703,0.0,0.02027027027027027,0.0,0.0,0.02027027027027027,0.013513513513513514,0.02702702702702703,0.0,0.013513513513513514,0.02702702702702703,0.013513513513513514,0.02027027027027027,0.013513513513513514,0.0,0.0,0.02027027027027027,0.02702702702702703,0.02702702702702703,0.006756756756756757,0.0,0.02027027027027027,0.02702702702702703,0.02702702702702703,0.033783783783783786,0.02027027027027027,0.02027027027027027,0.0,0.0,0.02027027027027027,0.02702702702702703,0.02702702702702703
S6_D5 hbo,0.0,0.0,0.0,0.0,0.0,0.0,0.0,0.0,0.056818181818181816,0.0,0.0,0.0,0.06818181818181818,0.0,0.03409090909090909,0.0,0.022727272727272728,0.2727272727272727,0.13636363636363635,0.0,0.056818181818181816,0.06818181818181818,0.0,0.022727272727272728,0.0,0.022727272727272728,0.03409090909090909,0.022727272727272728,0.045454545454545456,0.045454545454545456,0.0,0.0,0.0,0.0,0.0,0.03409090909090909,0.0,0.0,0.0,0.0,0.0,0.045454545454545456,0.0,0.0,0.0,0.0,0.0,0.011363636363636364,0.0,0.0,0.0,0.0
S6_D6 hbo,0.03496503496503497,0.0,0.027972027972027972,0.0,0.0,0.03496503496503497,0.0,0.0,0.04195804195804196,0.02097902097902098,0.013986013986013986,0.0,0.0,0.0,0.03496503496503497,0.0,0.02097902097902098,0.09090909090909091,0.20279720279720279,0.0,0.027972027972027972,0.03496503496503497,0.0,0.0,0.0,0.013986013986013986,0.013986013986013986,0.013986013986013986,0.02097902097902098,0.04895104895104895,0.0,0.013986013986013986,0.013986013986013986,0.0,0.04195804195804196,0.03496503496503497,0.02097902097902098,0.0,0.0,0.006993006993006993,0.0,0.04195804195804196,0.02097902097902098,0.027972027972027972,0.006993006993006993,0.0,0.013986013986013986,0.02097902097902098,0.013986013986013986,0.006993006993006993,0.006993006993006993,0.006993006993006993
S6_D8 hbo,0.0,0.0425531914893617,0.0,0.0,0.0,0.0,0.04964539007092199,0.0,0.0070921985815602835,0.014184397163120567,0.0,0.014184397163120567,0.0,0.0425531914893617,0.0070921985815602835,0.03546099290780142,0.0,0.0,0.0070921985815602835,0.07801418439716312,0.0,0.0,0.0425531914893617,0.0,0.0425531914893617,0.0,0.0,0.0,0.0,0.0,0.04964539007092199,0.0,0.0425531914893617,0.0070921985815602835,0.0,0.0425531914893617,0.0425531914893617,0.04964539007092199,0.04964539007092199,0.028368794326241134,0.0,0.02127659574468085,0.0,0.0425531914893617,0.0,0.04964539007092199,0.014184397163120567,0.0425531914893617,0.0,0.0425531914893617,0.0425531914893617,0.04964539007092199
S7_D5 hbo,0.023529411764705882,0.023529411764705882,0.023529411764705882,0.0,0.0196078431372549,0.023529411764705882,0.03137254901960784,0.0,0.050980392156862744,0.0,0.0,0.00392156862745098,0.0,0.0196078431372549,0.03529411764705882,0.03137254901960784,0.01568627450980392,0.0196078431372549,0.0196078431372549,0.0,0.08627450980392157,0.03529411764705882,0.03529411764705882,0.0,0.0,0.0,0.03529411764705882,0.0392156862745098,0.0,0.011764705882352941,0.0196078431372549,0.011764705882352941,0.047058823529411764,0.0,0.01568627450980392,0.0196078431372549,0.027450980392156862,0.0196078431372549,0.0196078431372549,0.01568627450980392,0.0,0.0196078431372549,0.0,0.023529411764705882,0.00784313725490196,0.01568627450980392,0.0392156862745098,0.01568627450980392,0.0,0.027450980392156862,0.03529411764705882,0.03529411764705882
S7_D7 hbo,0.0,0.11627906976744186,0.0,0.0,0.0,0.0,0.0,0.0,0.05813953488372093,0.0,0.0,0.0,0.0,0.046511627906976744,0.03488372093023256,0.0,0.0,0.06976744186046512,0.06976744186046512,0.0,0.09302325581395349,0.18604651162790697,0.023255813953488372,0.0,0.0,0.0,0.06976744186046512,0.023255813953488372,0.0,0.0,0.0,0.0,0.03488372093023256,0.011627906976744186,0.0,0.023255813953488372,0.0,0.0,0.0,0.046511627906976744,0.0,0.0,0.011627906976744186,0.0,0.0,0.0,0.03488372093023256,0.046511627906976744,0.0,0.0,0.0,0.0
S7_D8 hbo,0.03307888040712468,0.022900763358778626,0.022900763358778626,0.0,0.015267175572519083,0.022900763358778626,0.03307888040712468,0.0,0.035623409669211195,0.0,0.010178117048346057,0.0,0.0,0.022900763358778626,0.027989821882951654,0.027989821882951654,0.002544529262086514,0.0,0.005089058524173028,0.01272264631043257,0.017811704834605598,0.002544529262086514,0.061068702290076333,0.0,0.0,0.0,0.022900763358778626,0.017811704834605598,0.0,0.017811704834605598,0.027989821882951654,0.0,0.061068702290076333,0.002544529262086514,0.020356234096692113,0.02544529262086514,0.043256997455470736,0.027989821882951654,0.02544529262086514,0.03307888040712468,0.007633587786259542,0.030534351145038167,0.01272264631043257,0.017811704834605598,0.015267175572519083,0.022900763358778626,0.03816793893129771,0.017811704834605598,0.0,0.04580152671755725,0.043256997455470736,0.04580152671755725
S8_D6 hbo,0.0,0.0,0.0,0.0,0.10810810810810811,0.0,0.0,0.0,0.0,0.0,0.0,0.0,0.10810810810810811,0.0,0.0,0.0,0.0,0.0,0.0,0.0,0.0,0.0,0.0,0.5675675675675675,0.0,0.0,0.0,0.0,0.08108108108108109,0.0,0.0,0.0,0.0,0.0,0.0,0.0,0.0,0.0,0.0,0.08108108108108109,0.0,0.0,0.0,0.0,0.0,0.0,0.0,0.0,0.05405405405405406,0.0,0.0,0.0
S8_D8 hbo,0.058823529411764705,0.0,0.0392156862745098,0.0,0.0,0.058823529411764705,0.0,0.0,0.0,0.0196078431372549,0.13725490196078433,0.0,0.0,0.0,0.0,0.0,0.0,0.0,0.0392156862745098,0.09803921568627451,0.0,0.0,0.0,0.0,0.35294117647058826,0.0,0.0,0.0,0.0,0.0,0.0,0.0,0.0,0.0784313725490196,0.0,0.0,0.0,0.0,0.0,0.0,0.0,0.0,0.0,0.0392156862745098,0.0784313725490196,0.0,0.0,0.0,0.0,0.0,0.0,0.0
S8_D15 hbo,0.0,0.0,0.0,0.038461538461538464,0.0,0.0,0.0,0.0,0.0,0.0,0.0,0.0,0.057692307692307696,0.0,0.0,0.0,0.11538461538461539,0.0,0.07692307692307693,0.0,0.0,0.0,0.0,0.019230769230769232,0.0,0.3076923076923077,0.0,0.057692307692307696,0.057692307692307696,0.17307692307692307,0.0,0.0,0.0,0.0,0.0,0.0,0.0,0.0,0.0,0.0,0.0,0.0,0.057692307692307696,0.0,0.0,0.0,0.0,0.0,0.038461538461538464,0.0,0.0,0.0
S9_D2 hbo,0.027149321266968326,0.04072398190045249,0.027149321266968326,0.004524886877828055,0.013574660633484163,0.027149321266968326,0.01809954751131222,0.0,0.04072398190045249,0.0,0.0,0.0,0.0,0.04072398190045249,0.03167420814479638,0.02262443438914027,0.0,0.02262443438914027,0.01809954751131222,0.0,0.03619909502262444,0.03619909502262444,0.04072398190045249,0.0,0.0,0.0,0.11312217194570136,0.03167420814479638,0.013574660633484163,0.01809954751131222,0.004524886877828055,0.0,0.03619909502262444,0.01809954751131222,0.02262443438914027,0.027149321266968326,0.027149321266968326,0.004524886877828055,0.004524886877828055,0.04072398190045249,0.013574660633484163,0.013574660633484163,0.0,0.00904977375565611,0.00904977375565611,0.0,0.027149321266968326,0.04072398190045249,0.0,0.027149321266968326,0.02262443438914027,0.027149321266968326
S9_D9 hbo,0.03125,0.004464285714285714,0.04017857142857143,0.0,0.008928571428571428,0.04017857142857143,0.026785714285714284,0.0,0.05357142857142857,0.004464285714285714,0.0,0.0,0.026785714285714284,0.013392857142857142,0.04017857142857143,0.03125,0.008928571428571428,0.008928571428571428,0.008928571428571428,0.0,0.03125,0.008928571428571428,0.04017857142857143,0.008928571428571428,0.0,0.013392857142857142,0.03125,0.08928571428571429,0.022321428571428572,0.04017857142857143,0.013392857142857142,0.004464285714285714,0.04017857142857143,0.0,0.022321428571428572,0.0,0.03571428571428571,0.013392857142857142,0.013392857142857142,0.017857142857142856,0.004464285714285714,0.022321428571428572,0.0,0.017857142857142856,0.013392857142857142,0.008928571428571428,0.03571428571428571,0.0,0.0,0.03571428571428571,0.03125,0.03571428571428571
S9_D11 hbo,0.0,0.034482758620689655,0.0,0.008620689655172414,0.0,0.0,0.0,0.0,0.0,0.0,0.0,0.0,0.08620689655172414,0.02586206896551724,0.0,0.0,0.0,0.017241379310344827,0.008620689655172414,0.0,0.0,0.017241379310344827,0.0,0.02586206896551724,0.0,0.017241379310344827,0.02586206896551724,0.02586206896551724,0.29310344827586204,0.02586206896551724,0.034482758620689655,0.034482758620689655,0.0,0.1206896551724138,0.0,0.02586206896551724,0.02586206896551724,0.008620689655172414,0.0,0.008620689655172414,0.034482758620689655,0.008620689655172414,0.02586206896551724,0.0,0.034482758620689655,0.0,0.0,0.02586206896551724,0.0,0.0,0.0,0.0
S10_D9 hbo,0.05405405405405406,0.0,0.043243243243243246,0.0,0.0,0.04864864864864865,0.005405405405405406,0.0,0.02702702702702703,0.032432432432432434,0.010810810810810811,0.0,0.032432432432432434,0.0,0.032432432432432434,0.010810810810810811,0.021621621621621623,0.010810810810810811,0.043243243243243246,0.0,0.005405405405405406,0.0,0.016216216216216217,0.010810810810810811,0.0,0.04864864864864865,0.010810810810810811,0.043243243243243246,0.02702702702702703,0.1783783783783784,0.0,0.0,0.032432432432432434,0.0,0.06486486486486487,0.0,0.032432432432432434,0.0,0.0,0.010810810810810811,0.0,0.010810810810810811,0.016216216216216217,0.0,0.005405405405405406,0.0,0.032432432432432434,0.0,0.021621621621621623,0.021621621621621623,0.016216216216216217,0.021621621621621623
S10_D10 hbo,0.014198782961460446,0.028397565922920892,0.006085192697768763,0.0,0.012170385395537525,0.006085192697768763,0.038539553752535496,0.0,0.02028397565922921,0.008113590263691683,0.006085192697768763,0.0,0.0,0.032454361054766734,0.02231237322515213,0.04056795131845842,0.008113590263691683,0.0,0.002028397565922921,0.014198782961460446,0.014198782961460446,0.0,0.030425963488843813,0.0,0.0,0.0,0.006085192697768763,0.010141987829614604,0.008113590263691683,0.002028397565922921,0.07099391480730223,0.034482758620689655,0.030425963488843813,0.002028397565922921,0.004056795131845842,0.02231237322515213,0.056795131845841784,0.060851926977687626,0.05273833671399594,0.02028397565922921,0.016227180527383367,0.02231237322515213,0.008113590263691683,0.0486815415821501,0.02028397565922921,0.05273833671399594,0.02028397565922921,0.016227180527383367,0.0,0.030425963488843813,0.036511156186612576,0.04259634888438134
S10_D12 hbo,0.005076142131979695,0.030456852791878174,0.005076142131979695,0.0,0.03553299492385787,0.005076142131979695,0.030456852791878174,0.0,0.015228426395939087,0.0,0.0,0.0,0.005076142131979695,0.04568527918781726,0.01015228426395939,0.030456852791878174,0.02030456852791878,0.0,0.005076142131979695,0.0,0.025380710659898477,0.005076142131979695,0.01015228426395939,0.0,0.0,0.0,0.005076142131979695,0.015228426395939087,0.02030456852791878,0.0,0.09137055837563451,0.1218274111675127,0.01015228426395939,0.0,0.0,0.0,0.04568527918781726,0.06598984771573604,0.05583756345177665,0.0,0.04060913705583756,0.01015228426395939,0.01015228426395939,0.07106598984771574,0.030456852791878174,0.05583756345177665,0.01015228426395939,0.0,0.0,0.01015228426395939,0.025380710659898477,0.02030456852791878
S11_D9 hbo,0.0380952380952381,0.016666666666666666,0.02619047619047619,0.0,0.014285714285714285,0.02619047619047619,0.030952380952380953,0.0,0.03333333333333333,0.0,0.011904761904761904,0.0,0.0,0.02142857142857143,0.02857142857142857,0.02619047619047619,0.002380952380952381,0.0,0.009523809523809525,0.011904761904761904,0.01904761904761905,0.002380952380952381,0.05476190476190476,0.0,0.0,0.0,0.02142857142857143,0.016666666666666666,0.0,0.023809523809523808,0.02619047619047619,0.0,0.06428571428571428,0.002380952380952381,0.02619047619047619,0.023809523809523808,0.04523809523809524,0.02619047619047619,0.023809523809523808,0.030952380952380953,0.007142857142857143,0.030952380952380953,0.016666666666666666,0.016666666666666666,0.014285714285714285,0.02142857142857143,0.04523809523809524,0.016666666666666666,0.0,0.04285714285714286,0.04047619047619048,0.04285714285714286
S11_D11 hbo,0.0,0.07920792079207921,0.0,0.009900990099009901,0.0,0.0,0.009900990099009901,0.0,0.0,0.019801980198019802,0.039603960396039604,0.0,0.0,0.04950495049504951,0.0,0.009900990099009901,0.0297029702970297,0.0,0.0,0.009900990099009901,0.0,0.0297029702970297,0.009900990099009901,0.0,0.039603960396039604,0.0,0.039603960396039604,0.0,0.12871287128712872,0.0,0.009900990099009901,0.0,0.009900990099009901,0.21782178217821782,0.0,0.04950495049504951,0.009900990099009901,0.009900990099009901,0.009900990099009901,0.0297029702970297,0.0,0.0,0.0297029702970297,0.009900990099009901,0.019801980198019802,0.009900990099009901,0.0,0.04950495049504951,0.0,0.009900990099009901,0.009900990099009901,0.009900990099009901
S11_D12 hbo,0.07586206896551724,0.0,0.06206896551724138,0.0,0.0,0.06896551724137931,0.013793103448275862,0.0,0.041379310344827586,0.034482758620689655,0.013793103448275862,0.0,0.0,0.0,0.04827586206896552,0.020689655172413793,0.0,0.0,0.034482758620689655,0.0,0.013793103448275862,0.0,0.027586206896551724,0.0,0.0,0.0,0.020689655172413793,0.020689655172413793,0.0,0.09655172413793103,0.0,0.0,0.04827586206896552,0.0,0.0896551724137931,0.0,0.04827586206896552,0.0,0.0,0.020689655172413793,0.0,0.020689655172413793,0.020689655172413793,0.0,0.013793103448275862,0.0,0.04827586206896552,0.0,0.0,0.034482758620689655,0.027586206896551724,0.034482758620689655
S11_D13 hbo,0.016778523489932886,0.0436241610738255,0.003355704697986577,0.02348993288590604,0.0,0.003355704697986577,0.026845637583892617,0.0,0.020134228187919462,0.0,0.013422818791946308,0.0,0.0,0.0436241610738255,0.010067114093959731,0.016778523489932886,0.0,0.016778523489932886,0.02348993288590604,0.016778523489932886,0.010067114093959731,0.013422818791946308,0.03355704697986577,0.0,0.0,0.0,0.020134228187919462,0.0,0.010067114093959731,0.006711409395973154,0.030201342281879196,0.0,0.03691275167785235,0.020134228187919462,0.006711409395973154,0.10067114093959731,0.03355704697986577,0.030201342281879196,0.026845637583892617,0.040268456375838924,0.0,0.03355704697986577,0.016778523489932886,0.013422818791946308,0.013422818791946308,0.026845637583892617,0.02348993288590604,0.06375838926174497,0.0,0.03691275167785235,0.03691275167785235,0.03691275167785235
S12_D10 hbo,0.034408602150537634,0.010752688172043012,0.025806451612903226,0.0,0.0,0.025806451612903226,0.02795698924731183,0.0,0.030107526881720432,0.010752688172043012,0.010752688172043012,0.0,0.0,0.015053763440860216,0.03870967741935484,0.04516129032258064,0.002150537634408602,0.0,0.010752688172043012,0.008602150537634409,0.010752688172043012,0.0,0.03225806451612903,0.0,0.0,0.0,0.012903225806451613,0.012903225806451613,0.0064516129032258064,0.021505376344086023,0.047311827956989246,0.015053763440860216,0.03870967741935484,0.0,0.023655913978494623,0.017204301075268817,0.06666666666666667,0.04086021505376344,0.034408602150537634,0.02795698924731183,0.008602150537634409,0.02795698924731183,0.015053763440860216,0.03225806451612903,0.021505376344086023,0.034408602150537634,0.034408602150537634,0.010752688172043012,0.0,0.034408602150537634,0.03225806451612903,0.043010752688172046
S12_D12 hbo,0.014989293361884369,0.029978586723768737,0.006423982869379015,0.0,0.01284796573875803,0.006423982869379015,0.04068522483940043,0.0,0.021413276231263382,0.008565310492505354,0.006423982869379015,0.0,0.0,0.034261241970021415,0.023554603854389723,0.042826552462526764,0.008565310492505354,0.0,0.0021413276231263384,0.014989293361884369,0.014989293361884369,0.0,0.032119914346895075,0.0,0.0,0.0,0.006423982869379015,0.010706638115631691,0.004282655246252677,0.0021413276231263384,0.06423982869379015,0.023554603854389723,0.032119914346895075,0.0021413276231263384,0.004282655246252677,0.023554603854389723,0.055674518201284794,0.06209850107066381,0.055674518201284794,0.021413276231263382,0.004282655246252677,0.023554603854389723,0.008565310492505354,0.05139186295503212,0.01284796573875803,0.055674518201284794,0.021413276231263382,0.017130620985010708,0.0,0.032119914346895075,0.03854389721627409,0.044967880085653104
S12_D14 hbo,0.013544018058690745,0.033860045146726865,0.006772009029345372,0.0,0.01580135440180587,0.006772009029345372,0.045146726862302484,0.0,0.020316027088036117,0.009029345372460496,0.004514672686230248,0.0,0.0,0.040632054176072234,0.022573363431151242,0.04288939051918736,0.009029345372460496,0.0,0.0,0.01580135440180587,0.01580135440180587,0.0,0.03160270880361174,0.0,0.0,0.0,0.006772009029345372,0.011286681715575621,0.0,0.0,0.0654627539503386,0.022573363431151242,0.03160270880361174,0.002257336343115124,0.002257336343115124,0.022573363431151242,0.04740406320541761,0.0654627539503386,0.060948081264108354,0.020316027088036117,0.0,0.022573363431151242,0.006772009029345372,0.05191873589164785,0.006772009029345372,0.060948081264108354,0.020316027088036117,0.01805869074492099,0.0,0.03160270880361174,0.040632054176072234,0.04740406320541761
S13_D6 hbo,0.03389830508474576,0.02711864406779661,0.020338983050847456,0.0,0.0,0.020338983050847456,0.02711864406779661,0.0,0.03389830508474576,0.0,0.01694915254237288,0.0,0.010169491525423728,0.030508474576271188,0.02711864406779661,0.02711864406779661,0.0,0.006779661016949152,0.010169491525423728,0.006779661016949152,0.010169491525423728,0.006779661016949152,0.03728813559322034,0.006779661016949152,0.0,0.0,0.023728813559322035,0.013559322033898305,0.0,0.020338983050847456,0.020338983050847456,0.0,0.04406779661016949,0.0,0.023728813559322035,0.02711864406779661,0.04406779661016949,0.020338983050847456,0.01694915254237288,0.09491525423728814,0.0,0.03728813559322034,0.020338983050847456,0.006779661016949152,0.020338983050847456,0.01694915254237288,0.04067796610169491,0.02711864406779661,0.0,0.04067796610169491,0.04067796610169491,0.04067796610169491
S13_D11 hbo,0.0,0.0,0.0,0.0,0.043478260869565216,0.0,0.0,0.0,0.0,0.0,0.0,0.0,0.0,0.0,0.0,0.0,0.0,0.0,0.0,0.0,0.0,0.0,0.043478260869565216,0.0,0.0,0.0,0.021739130434782608,0.0,0.08695652173913043,0.0,0.13043478260869565,0.15217391304347827,0.021739130434782608,0.0,0.0,0.0,0.08695652173913043,0.043478260869565216,0.0,0.0,0.2391304347826087,0.0,0.0,0.0,0.13043478260869565,0.0,0.0,0.0,0.0,0.0,0.0,0.0
S13_D13 hbo,0.040955631399317405,0.010238907849829351,0.027303754266211604,0.0,0.0,0.027303754266211604,0.030716723549488054,0.0,0.03754266211604096,0.0,0.017064846416382253,0.0,0.0,0.017064846416382253,0.030716723549488054,0.027303754266211604,0.0034129692832764505,0.010238907849829351,0.027303754266211604,0.0034129692832764505,0.017064846416382253,0.0,0.03754266211604096,0.0,0.0,0.0,0.017064846416382253,0.017064846416382253,0.0034129692832764505,0.020477815699658702,0.023890784982935155,0.0,0.04436860068259386,0.0,0.023890784982935155,0.020477815699658702,0.04778156996587031,0.023890784982935155,0.020477815699658702,0.03754266211604096,0.0,0.07508532423208192,0.023890784982935155,0.010238907849829351,0.020477815699658702,0.017064846416382253,0.04436860068259386,0.010238907849829351,0.010238907849829351,0.040955631399317405,0.040955631399317405,0.040955631399317405
S13_D15 hbo,0.051094890510948905,0.0,0.029197080291970802,0.0364963503649635,0.0,0.029197080291970802,0.0072992700729927005,0.0,0.029197080291970802,0.0072992700729927005,0.0364963503649635,0.0,0.0,0.0,0.029197080291970802,0.0,0.043795620437956206,0.0,0.0364963503649635,0.0,0.0,0.021897810218978103,0.021897810218978103,0.0,0.0,0.021897810218978103,0.0,0.0,0.014598540145985401,0.0364963503649635,0.014598540145985401,0.0072992700729927005,0.0364963503649635,0.0072992700729927005,0.0364963503649635,0.021897810218978103,0.043795620437956206,0.014598540145985401,0.0072992700729927005,0.029197080291970802,0.0,0.0364963503649635,0.13138686131386862,0.0,0.029197080291970802,0.0072992700729927005,0.0364963503649635,0.0,0.0,0.029197080291970802,0.029197080291970802,0.029197080291970802
S14_D12 hbo,0.0111731843575419,0.027932960893854747,0.0111731843575419,0.0,0.019553072625698324,0.0111731843575419,0.04189944134078212,0.0,0.01675977653631285,0.0111731843575419,0.0,0.0,0.0,0.036312849162011177,0.027932960893854747,0.05307262569832402,0.0111731843575419,0.0,0.008379888268156424,0.013966480446927373,0.0223463687150838,0.0,0.025139664804469275,0.0,0.0,0.0,0.0111731843575419,0.01675977653631285,0.0,0.002793296089385475,0.061452513966480445,0.0335195530726257,0.025139664804469275,0.002793296089385475,0.00558659217877095,0.0111731843575419,0.05307262569832402,0.061452513966480445,0.05865921787709497,0.01675977653631285,0.0,0.019553072625698324,0.0,0.0782122905027933,0.00558659217877095,0.05865921787709497,0.01675977653631285,0.0111731843575419,0.0,0.025139664804469275,0.0335195530726257,0.04189944134078212
S14_D13 hbo,0.06,0.025,0.05,0.0,0.0,0.05,0.01,0.0,0.04,0.015,0.025,0.0,0.0,0.0,0.03,0.01,0.03,0.0,0.015,0.0,0.01,0.0,0.02,0.0,0.025,0.0,0.01,0.01,0.02,0.025,0.03,0.03,0.03,0.0,0.025,0.01,0.05,0.015,0.0,0.025,0.03,0.025,0.02,0.0,0.125,0.0,0.03,0.0,0.0,0.025,0.025,0.025
S14_D14 hbo,0.01201923076923077,0.03365384615384615,0.004807692307692308,0.0,0.014423076923076924,0.004807692307692308,0.04326923076923077,0.0,0.019230769230769232,0.009615384615384616,0.004807692307692308,0.0,0.0,0.038461538461538464,0.021634615384615384,0.04567307692307692,0.009615384615384616,0.0,0.0,0.016826923076923076,0.014423076923076924,0.0,0.03125,0.0,0.0,0.0,0.004807692307692308,0.009615384615384616,0.0,0.0,0.06971153846153846,0.021634615384615384,0.03125,0.002403846153846154,0.0,0.02403846153846154,0.052884615384615384,0.06971153846153846,0.0625,0.019230769230769232,0.0,0.021634615384615384,0.007211538461538462,0.055288461538461536,0.004807692307692308,0.06490384615384616,0.019230769230769232,0.019230769230769232,0.0,0.03125,0.038461538461538464,0.04567307692307692
S14_D16 hbo,0.05263157894736842,0.006578947368421052,0.03618421052631579,0.0,0.0,0.03618421052631579,0.02631578947368421,0.0,0.046052631578947366,0.0,0.01644736842105263,0.0,0.0,0.013157894736842105,0.039473684210526314,0.02631578947368421,0.003289473684210526,0.0,0.013157894736842105,0.0,0.019736842105263157,0.003289473684210526,0.039473684210526314,0.0,0.0,0.0,0.019736842105263157,0.019736842105263157,0.0,0.03289473684210526,0.019736842105263157,0.0,0.05592105263157895,0.0,0.03618421052631579,0.01644736842105263,0.049342105263157895,0.019736842105263157,0.01644736842105263,0.03289473684210526,0.0,0.03618421052631579,0.023026315789473683,0.009868421052631578,0.019736842105263157,0.013157894736842105,0.06907894736842106,0.006578947368421052,0.0,0.04276315789473684,0.039473684210526314,0.04276315789473684
S15_D13 hbo,0.008298755186721992,0.07468879668049792,0.0,0.004149377593360996,0.0,0.0,0.03319502074688797,0.0,0.012448132780082987,0.0,0.004149377593360996,0.0,0.0,0.06639004149377593,0.0,0.02074688796680498,0.0,0.012448132780082987,0.012448132780082987,0.02074688796680498,0.008298755186721992,0.016597510373443983,0.03319502074688797,0.0,0.0,0.0,0.029045643153526972,0.0,0.012448132780082987,0.0,0.03319502074688797,0.0,0.03319502074688797,0.024896265560165973,0.0,0.07883817427385892,0.029045643153526972,0.03319502074688797,0.03319502074688797,0.04979253112033195,0.0,0.02074688796680498,0.008298755186721992,0.016597510373443983,0.004149377593360996,0.03319502074688797,0.016597510373443983,0.11618257261410789,0.0,0.03319502074688797,0.03319502074688797,0.03319502074688797
S15_D15 hbo,0.0,0.0,0.0,0.0,0.0,0.0,0.0,0.0,0.0,0.0,0.0,0.0,0.0,0.0,0.0,0.0,0.0,0.0,0.11538461538461539,0.0,0.0,0.0,0.0,0.15384615384615385,0.0,0.0,0.0,0.0,0.038461538461538464,0.07692307692307693,0.0,0.0,0.0,0.0,0.0,0.0,0.0,0.0,0.0,0.0,0.0,0.038461538461538464,0.0,0.0,0.0,0.0,0.0,0.0,0.5769230769230769,0.0,0.0,0.0
S15_D16 hbo,0.03723404255319149,0.018617021276595744,0.026595744680851064,0.0,0.0,0.026595744680851064,0.034574468085106384,0.0,0.03723404255319149,0.0,0.013297872340425532,0.0,0.0,0.023936170212765957,0.031914893617021274,0.02925531914893617,0.0026595744680851063,0.0,0.007978723404255319,0.013297872340425532,0.013297872340425532,0.0,0.04521276595744681,0.0,0.0,0.0,0.015957446808510637,0.015957446808510637,0.0,0.02127659574468085,0.02925531914893617,0.0,0.05319148936170213,0.0026595744680851063,0.023936170212765957,0.026595744680851064,0.047872340425531915,0.02925531914893617,0.026595744680851064,0.034574468085106384,0.0,0.034574468085106384,0.015957446808510637,0.018617021276595744,0.015957446808510637,0.023936170212765957,0.0425531914893617,0.018617021276595744,0.0,0.047872340425531915,0.04521276595744681,0.047872340425531915
S16_D14 hbo,0.02981651376146789,0.02522935779816514,0.020642201834862386,0.0,0.006880733944954129,0.020642201834862386,0.0389908256880734,0.0,0.034403669724770644,0.0,0.011467889908256881,0.0,0.0,0.02981651376146789,0.02522935779816514,0.02981651376146789,0.009174311926605505,0.0,0.006880733944954129,0.013761467889908258,0.01834862385321101,0.0,0.04357798165137615,0.0,0.0,0.0,0.013761467889908258,0.01834862385321101,0.0,0.016055045871559634,0.034403669724770644,0.006880733944954129,0.0481651376146789,0.0022935779816513763,0.01834862385321101,0.02522935779816514,0.04357798165137615,0.034403669724770644,0.03211009174311927,0.02981651376146789,0.0,0.03211009174311927,0.013761467889908258,0.022935779816513763,0.013761467889908258,0.02981651376146789,0.03669724770642202,0.01834862385321101,0.0,0.045871559633027525,0.0481651376146789,0.05045871559633028
S16_D16 hbo,0.029661016949152543,0.0211864406779661,0.0211864406779661,0.0,0.00423728813559322,0.0211864406779661,0.038135593220338986,0.0,0.03389830508474576,0.00423728813559322,0.01059322033898305,0.0,0.0,0.025423728813559324,0.03389830508474576,0.036016949152542374,0.006355932203389831,0.0,0.006355932203389831,0.012711864406779662,0.014830508474576272,0.0,0.04025423728813559,0.0,0.0,0.0,0.012711864406779662,0.01694915254237288,0.0,0.01694915254237288,0.038135593220338986,0.00847457627118644,0.046610169491525424,0.00211864406779661,0.019067796610169493,0.023305084745762712,0.048728813559322036,0.038135593220338986,0.036016949152542374,0.02754237288135593,0.0,0.029661016949152543,0.012711864406779662,0.02754237288135593,0.012711864406779662,0.03389830508474576,0.036016949152542374,0.01694915254237288,0.0,0.0423728813559322,0.0423728813559322,0.05084745762711865
