,S1_D1 hbo,S1_D3 hbo,S2_D1 hbo,S2_D2 hbo,S2_D4 hbo,S3_D1 hbo,S3_D3 hbo,S3_D4 hbo,S3_D5 hbo,S4_D2 hbo,S4_D4 hbo,S4_D6 hbo,S4_D11 hbo,S5_D3 hbo,S5_D5 hbo,S5_D7 hbo,S6_D4 hbo,S6_D5 hbo,S6_D6 hbo,S6_D8 hbo,S7_D5 hbo,S7_D7 hbo,S7_D8 hbo,S8_D6 hbo,S8_D8 hbo,S8_D15 hbo,S9_D2 hbo,S9_D9 hbo,S9_D11 hbo,S10_D9 hbo,S10_D10 hbo,S10_D12 hbo,S11_D9 hbo,S11_D11 hbo,S11_D12 hbo,S11_D13 hbo,S12_D10 hbo,S12_D12 hbo,S12_D14 hbo,S13_D6 hbo,S13_D11 hbo,S13_D13 hbo,S13_D15 hbo,S14_D12 hbo,S14_D13 hbo,S14_D14 hbo,S14_D16 hbo,S15_D13 hbo,S15_D15 hbo,S15_D16 hbo,S16_D14 hbo,S16_D16 hbo
S1_D1 hbo,0.02557544757033248,0.028132992327365727,0.015345268542199489,0.0,0.0,0.02557544757033248,0.028132992327365727,0.02557544757033248,0.02557544757033248,0.023017902813299233,0.01278772378516624,0.017902813299232736,0.017902813299232736,0.0,0.028132992327365727,0.028132992327365727,0.02557544757033248,0.028132992327365727,0.01278772378516624,0.017902813299232736,0.02557544757033248,0.023017902813299233,0.020460358056265986,0.017902813299232736,0.017902813299232736,0.023017902813299233,0.02557544757033248,0.0076726342710997444,0.0,0.02557544757033248,0.028132992327365727,0.0025575447570332483,0.02557544757033248,0.02557544757033248,0.02557544757033248,0.023017902813299233,0.0,0.0,0.023017902813299233,0.015345268542199489,0.023017902813299233,0.02557544757033248,0.005115089514066497,0.023017902813299233,0.0025575447570332483,0.028132992327365727,0.02557544757033248,0.028132992327365727,0.02557544757033248,0.020460358056265986,0.028132992327365727,0.023017902813299233
S1_D3 hbo,0.025252525252525252,0.030303030303030304,0.015151515151515152,0.0,0.0,0.025252525252525252,0.030303030303030304,0.025252525252525252,0.025252525252525252,0.022727272727272728,0.012626262626262626,0.017676767676767676,0.017676767676767676,0.0,0.027777777777777776,0.027777777777777776,0.025252525252525252,0.027777777777777776,0.012626262626262626,0.017676767676767676,0.025252525252525252,0.022727272727272728,0.020202020202020204,0.017676767676767676,0.017676767676767676,0.022727272727272728,0.025252525252525252,0.007575757575757576,0.0,0.025252525252525252,0.030303030303030304,0.0025252525252525255,0.025252525252525252,0.025252525252525252,0.025252525252525252,0.022727272727272728,0.0,0.0,0.022727272727272728,0.015151515151515152,0.022727272727272728,0.025252525252525252,0.005050505050505051,0.022727272727272728,0.0025252525252525255,0.027777777777777776,0.025252525252525252,0.027777777777777776,0.025252525252525252,0.020202020202020204,0.03282828282828283,0.022727272727272728
S2_D1 hbo,0.023728813559322035,0.023728813559322035,0.020338983050847456,0.0,0.0,0.023728813559322035,0.023728813559322035,0.023728813559322035,0.023728813559322035,0.023728813559322035,0.01694915254237288,0.023728813559322035,0.023728813559322035,0.0,0.023728813559322035,0.023728813559322035,0.023728813559322035,0.023728813559322035,0.01694915254237288,0.023728813559322035,0.023728813559322035,0.023728813559322035,0.023728813559322035,0.023728813559322035,0.023728813559322035,0.023728813559322035,0.023728813559322035,0.010169491525423728,0.0,0.023728813559322035,0.023728813559322035,0.003389830508474576,0.023728813559322035,0.023728813559322035,0.023728813559322035,0.023728813559322035,0.0,0.0,0.023728813559322035,0.020338983050847456,0.023728813559322035,0.023728813559322035,0.006779661016949152,0.023728813559322035,0.003389830508474576,0.023728813559322035,0.023728813559322035,0.023728813559322035,0.023728813559322035,0.023728813559322035,0.023728813559322035,0.023728813559322035
S2_D2 hbo,0.0,0.0,0.0,0.0,0.0,0.0,0.0,0.0,0.0,0.0,0.0,0.0,0.0,0.0,0.0,0.0,0.0,0.0,0.0,0.0,0.0,0.0,0.0,0.0,0.0,0.0,0.0,0.0,0.0,0.0,0.0,0.0,0.0,0.0,0.0,0.0,0.0,0.0,0.0,0.0,0.0,0.0,0.0,0.0,0.0,0.0,0.0,0.0,0.0,0.0,0.0,0.0
S2_D4 hbo,0.0,0.0,0.0,0.0,0.0,0.0,0.0,0.0,0.0,0.0,0.0,0.0,0.0,0.0,0.0,0.0,0.0,0.0,0.0,0.0,0.0,0.0,0.0,0.0,0.0,0.0,0.0,0.0,0.0,0.0,0.0,0.0,0.0,0.0,0.0,0.0,0.0,0.0,0.0,0.0,0.0,0.0,0.0,0.0,0.0,0.0,0.0,0.0,0.0,0.0,0.0,0.0
S3_D1 hbo,0.02557544757033248,0.028132992327365727,0.015345268542199489,0.0,0.0,0.02557544757033248,0.028132992327365727,0.02557544757033248,0.02557544757033248,0.023017902813299233,0.01278772378516624,0.017902813299232736,0.017902813299232736,0.0,0.028132992327365727,0.028132992327365727,0.02557544757033248,0.028132992327365727,0.01278772378516624,0.017902813299232736,0.02557544757033248,0.023017902813299233,0.020460358056265986,0.017902813299232736,0.017902813299232736,0.023017902813299233,0.02557544757033248,0.0076726342710997444,0.0,0.02557544757033248,0.028132992327365727,0.0025575447570332483,0.02557544757033248,0.02557544757033248,0.02557544757033248,0.023017902813299233,0.0,0.0,0.023017902813299233,0.015345268542199489,0.023017902813299233,0.02557544757033248,0.005115089514066497,0.023017902813299233,0.0025575447570332483,0.028132992327365727,0.02557544757033248,0.028132992327365727,0.02557544757033248,0.020460358056265986,0.028132992327365727,0.023017902813299233
S3_D3 hbo,0.025252525252525252,0.030303030303030304,0.015151515151515152,0.0,0.0,0.025252525252525252,0.030303030303030304,0.025252525252525252,0.025252525252525252,0.022727272727272728,0.012626262626262626,0.017676767676767676,0.017676767676767676,0.0,0.027777777777777776,0.027777777777777776,0.025252525252525252,0.027777777777777776,0.012626262626262626,0.017676767676767676,0.025252525252525252,0.022727272727272728,0.020202020202020204,0.017676767676767676,0.017676767676767676,0.022727272727272728,0.025252525252525252,0.007575757575757576,0.0,0.025252525252525252,0.030303030303030304,0.0025252525252525255,0.025252525252525252,0.025252525252525252,0.025252525252525252,0.022727272727272728,0.0,0.0,0.022727272727272728,0.015151515151515152,0.022727272727272728,0.025252525252525252,0.005050505050505051,0.022727272727272728,0.0025252525252525255,0.027777777777777776,0.025252525252525252,0.027777777777777776,0.025252525252525252,0.020202020202020204,0.03282828282828283,0.022727272727272728
S3_D4 hbo,0.02557544757033248,0.028132992327365727,0.015345268542199489,0.0,0.0,0.02557544757033248,0.028132992327365727,0.02557544757033248,0.02557544757033248,0.023017902813299233,0.01278772378516624,0.017902813299232736,0.017902813299232736,0.0,0.028132992327365727,0.028132992327365727,0.02557544757033248,0.028132992327365727,0.01278772378516624,0.017902813299232736,0.02557544757033248,0.023017902813299233,0.020460358056265986,0.017902813299232736,0.017902813299232736,0.023017902813299233,0.02557544757033248,0.0076726342710997444,0.0,0.02557544757033248,0.028132992327365727,0.0025575447570332483,0.02557544757033248,0.02557544757033248,0.02557544757033248,0.023017902813299233,0.0,0.0,0.023017902813299233,0.015345268542199489,0.023017902813299233,0.02557544757033248,0.005115089514066497,0.023017902813299233,0.0025575447570332483,0.028132992327365727,0.02557544757033248,0.028132992327365727,0.02557544757033248,0.020460358056265986,0.028132992327365727,0.023017902813299233
S3_D5 hbo,0.02557544757033248,0.028132992327365727,0.015345268542199489,0.0,0.0,0.02557544757033248,0.028132992327365727,0.02557544757033248,0.02557544757033248,0.023017902813299233,0.01278772378516624,0.017902813299232736,0.017902813299232736,0.0,0.028132992327365727,0.028132992327365727,0.02557544757033248,0.028132992327365727,0.01278772378516624,0.017902813299232736,0.02557544757033248,0.023017902813299233,0.020460358056265986,0.017902813299232736,0.017902813299232736,0.023017902813299233,0.02557544757033248,0.0076726342710997444,0.0,0.02557544757033248,0.028132992327365727,0.0025575447570332483,0.02557544757033248,0.02557544757033248,0.02557544757033248,0.023017902813299233,0.0,0.0,0.023017902813299233,0.015345268542199489,0.023017902813299233,0.02557544757033248,0.005115089514066497,0.023017902813299233,0.0025575447570332483,0.028132992327365727,0.02557544757033248,0.028132992327365727,0.02557544757033248,0.020460358056265986,0.028132992327365727,0.023017902813299233
S4_D2 hbo,0.02617801047120419,0.02617801047120419,0.015706806282722512,0.0,0.0,0.02617801047120419,0.02617801047120419,0.02617801047120419,0.02617801047120419,0.02356020942408377,0.013089005235602094,0.01832460732984293,0.01832460732984293,0.0,0.02617801047120419,0.02617801047120419,0.02617801047120419,0.02617801047120419,0.013089005235602094,0.01832460732984293,0.02617801047120419,0.02356020942408377,0.020942408376963352,0.01832460732984293,0.01832460732984293,0.02356020942408377,0.02617801047120419,0.007853403141361256,0.0,0.02617801047120419,0.02617801047120419,0.002617801047120419,0.02617801047120419,0.02617801047120419,0.02617801047120419,0.02356020942408377,0.0,0.0,0.02356020942408377,0.015706806282722512,0.02356020942408377,0.02617801047120419,0.005235602094240838,0.02356020942408377,0.002617801047120419,0.02617801047120419,0.02617801047120419,0.02617801047120419,0.02617801047120419,0.020942408376963352,0.02617801047120419,0.02356020942408377
S4_D4 hbo,0.023346303501945526,0.023346303501945526,0.023346303501945526,0.0,0.0,0.023346303501945526,0.023346303501945526,0.023346303501945526,0.023346303501945526,0.023346303501945526,0.019455252918287938,0.023346303501945526,0.023346303501945526,0.0,0.023346303501945526,0.023346303501945526,0.023346303501945526,0.023346303501945526,0.019455252918287938,0.023346303501945526,0.023346303501945526,0.023346303501945526,0.023346303501945526,0.023346303501945526,0.023346303501945526,0.023346303501945526,0.023346303501945526,0.011673151750972763,0.0,0.023346303501945526,0.023346303501945526,0.0038910505836575876,0.023346303501945526,0.023346303501945526,0.023346303501945526,0.023346303501945526,0.0,0.0,0.023346303501945526,0.023346303501945526,0.023346303501945526,0.023346303501945526,0.007782101167315175,0.023346303501945526,0.0038910505836575876,0.023346303501945526,0.023346303501945526,0.023346303501945526,0.023346303501945526,0.023346303501945526,0.023346303501945526,0.023346303501945526
S4_D6 hbo,0.024390243902439025,0.024390243902439025,0.018292682926829267,0.0,0.0,0.024390243902439025,0.024390243902439025,0.024390243902439025,0.024390243902439025,0.024390243902439025,0.01524390243902439,0.021341463414634148,0.021341463414634148,0.0,0.024390243902439025,0.024390243902439025,0.024390243902439025,0.024390243902439025,0.01524390243902439,0.021341463414634148,0.024390243902439025,0.024390243902439025,0.024390243902439025,0.021341463414634148,0.021341463414634148,0.024390243902439025,0.024390243902439025,0.009146341463414634,0.0,0.024390243902439025,0.024390243902439025,0.003048780487804878,0.024390243902439025,0.024390243902439025,0.024390243902439025,0.024390243902439025,0.0,0.0,0.024390243902439025,0.018292682926829267,0.024390243902439025,0.024390243902439025,0.006097560975609756,0.024390243902439025,0.003048780487804878,0.024390243902439025,0.024390243902439025,0.024390243902439025,0.024390243902439025,0.024390243902439025,0.024390243902439025,0.024390243902439025
S4_D11 hbo,0.024390243902439025,0.024390243902439025,0.018292682926829267,0.0,0.0,0.024390243902439025,0.024390243902439025,0.024390243902439025,0.024390243902439025,0.024390243902439025,0.01524390243902439,0.021341463414634148,0.021341463414634148,0.0,0.024390243902439025,0.024390243902439025,0.024390243902439025,0.024390243902439025,0.01524390243902439,0.021341463414634148,0.024390243902439025,0.024390243902439025,0.024390243902439025,0.021341463414634148,0.021341463414634148,0.024390243902439025,0.024390243902439025,0.009146341463414634,0.0,0.024390243902439025,0.024390243902439025,0.003048780487804878,0.024390243902439025,0.024390243902439025,0.024390243902439025,0.024390243902439025,0.0,0.0,0.024390243902439025,0.018292682926829267,0.024390243902439025,0.024390243902439025,0.006097560975609756,0.024390243902439025,0.003048780487804878,0.024390243902439025,0.024390243902439025,0.024390243902439025,0.024390243902439025,0.024390243902439025,0.024390243902439025,0.024390243902439025
S5_D3 hbo,0.0,0.0,0.0,0.0,0.0,0.0,0.0,0.0,0.0,0.0,0.0,0.0,0.0,0.0,0.0,0.0,0.0,0.0,0.0,0.0,0.0,0.0,0.0,0.0,0.0,0.0,0.0,0.0,0.0,0.0,0.0,0.0,0.0,0.0,0.0,0.0,0.0,0.0,0.0,0.0,0.0,0.0,0.0,0.0,0.0,0.0,0.0,0.0,0.0,0.0,0.0,0.0
S5_D5 hbo,0.02531645569620253,0.030379746835443037,0.015189873417721518,0.0,0.0,0.02531645569620253,0.030379746835443037,0.02531645569620253,0.02531645569620253,0.02278481012658228,0.012658227848101266,0.017721518987341773,0.017721518987341773,0.0,0.027848101265822784,0.027848101265822784,0.02531645569620253,0.027848101265822784,0.012658227848101266,0.017721518987341773,0.02531645569620253,0.02278481012658228,0.020253164556962026,0.017721518987341773,0.017721518987341773,0.02278481012658228,0.02531645569620253,0.007594936708860759,0.0,0.02531645569620253,0.030379746835443037,0.002531645569620253,0.02531645569620253,0.02531645569620253,0.02531645569620253,0.02278481012658228,0.0,0.0,0.02278481012658228,0.015189873417721518,0.02278481012658228,0.02531645569620253,0.005063291139240506,0.02278481012658228,0.002531645569620253,0.027848101265822784,0.02531645569620253,0.027848101265822784,0.02531645569620253,0.020253164556962026,0.030379746835443037,0.02278481012658228
S5_D7 hbo,0.02531645569620253,0.030379746835443037,0.015189873417721518,0.0,0.0,0.02531645569620253,0.030379746835443037,0.02531645569620253,0.02531645569620253,0.02278481012658228,0.012658227848101266,0.017721518987341773,0.017721518987341773,0.0,0.027848101265822784,0.027848101265822784,0.02531645569620253,0.027848101265822784,0.012658227848101266,0.017721518987341773,0.02531645569620253,0.02278481012658228,0.020253164556962026,0.017721518987341773,0.017721518987341773,0.02278481012658228,0.02531645569620253,0.007594936708860759,0.0,0.02531645569620253,0.030379746835443037,0.002531645569620253,0.02531645569620253,0.02531645569620253,0.02531645569620253,0.02278481012658228,0.0,0.0,0.02278481012658228,0.015189873417721518,0.02278481012658228,0.02531645569620253,0.005063291139240506,0.02278481012658228,0.002531645569620253,0.027848101265822784,0.02531645569620253,0.027848101265822784,0.02531645569620253,0.020253164556962026,0.030379746835443037,0.02278481012658228
S6_D4 hbo,0.02557544757033248,0.028132992327365727,0.015345268542199489,0.0,0.0,0.02557544757033248,0.028132992327365727,0.02557544757033248,0.02557544757033248,0.023017902813299233,0.01278772378516624,0.017902813299232736,0.017902813299232736,0.0,0.028132992327365727,0.028132992327365727,0.02557544757033248,0.028132992327365727,0.01278772378516624,0.017902813299232736,0.02557544757033248,0.023017902813299233,0.020460358056265986,0.017902813299232736,0.017902813299232736,0.023017902813299233,0.02557544757033248,0.0076726342710997444,0.0,0.02557544757033248,0.028132992327365727,0.0025575447570332483,0.02557544757033248,0.02557544757033248,0.02557544757033248,0.023017902813299233,0.0,0.0,0.023017902813299233,0.015345268542199489,0.023017902813299233,0.02557544757033248,0.005115089514066497,0.023017902813299233,0.0025575447570332483,0.028132992327365727,0.02557544757033248,0.028132992327365727,0.02557544757033248,0.020460358056265986,0.028132992327365727,0.023017902813299233
S6_D5 hbo,0.02531645569620253,0.030379746835443037,0.015189873417721518,0.0,0.0,0.02531645569620253,0.030379746835443037,0.02531645569620253,0.02531645569620253,0.02278481012658228,0.012658227848101266,0.017721518987341773,0.017721518987341773,0.0,0.027848101265822784,0.027848101265822784,0.02531645569620253,0.027848101265822784,0.012658227848101266,0.017721518987341773,0.02531645569620253,0.02278481012658228,0.020253164556962026,0.017721518987341773,0.017721518987341773,0.02278481012658228,0.02531645569620253,0.007594936708860759,0.0,0.02531645569620253,0.030379746835443037,0.002531645569620253,0.02531645569620253,0.02531645569620253,0.02531645569620253,0.02278481012658228,0.0,0.0,0.02278481012658228,0.015189873417721518,0.02278481012658228,0.02531645569620253,0.005063291139240506,0.02278481012658228,0.002531645569620253,0.027848101265822784,0.02531645569620253,0.027848101265822784,0.02531645569620253,0.020253164556962026,0.030379746835443037,0.02278481012658228
S6_D6 hbo,0.023346303501945526,0.023346303501945526,0.023346303501945526,0.0,0.0,0.023346303501945526,0.023346303501945526,0.023346303501945526,0.023346303501945526,0.023346303501945526,0.019455252918287938,0.023346303501945526,0.023346303501945526,0.0,0.023346303501945526,0.023346303501945526,0.023346303501945526,0.023346303501945526,0.019455252918287938,0.023346303501945526,0.023346303501945526,0.023346303501945526,0.023346303501945526,0.023346303501945526,0.023346303501945526,0.023346303501945526,0.023346303501945526,0.011673151750972763,0.0,0.023346303501945526,0.023346303501945526,0.0038910505836575876,0.023346303501945526,0.023346303501945526,0.023346303501945526,0.023346303501945526,0.0,0.0,0.023346303501945526,0.023346303501945526,0.023346303501945526,0.023346303501945526,0.007782101167315175,0.023346303501945526,0.0038910505836575876,0.023346303501945526,0.023346303501945526,0.023346303501945526,0.023346303501945526,0.023346303501945526,0.023346303501945526,0.023346303501945526
S6_D8 hbo,0.024390243902439025,0.024390243902439025,0.018292682926829267,0.0,0.0,0.024390243902439025,0.024390243902439025,0.024390243902439025,0.024390243902439025,0.024390243902439025,0.01524390243902439,0.021341463414634148,0.021341463414634148,0.0,0.024390243902439025,0.024390243902439025,0.024390243902439025,0.024390243902439025,0.01524390243902439,0.021341463414634148,0.024390243902439025,0.024390243902439025,0.024390243902439025,0.021341463414634148,0.021341463414634148,0.024390243902439025,0.024390243902439025,0.009146341463414634,0.0,0.024390243902439025,0.024390243902439025,0.003048780487804878,0.024390243902439025,0.024390243902439025,0.024390243902439025,0.024390243902439025,0.0,0.0,0.024390243902439025,0.018292682926829267,0.024390243902439025,0.024390243902439025,0.006097560975609756,0.024390243902439025,0.003048780487804878,0.024390243902439025,0.024390243902439025,0.024390243902439025,0.024390243902439025,0.024390243902439025,0.024390243902439025,0.024390243902439025
S7_D5 hbo,0.02557544757033248,0.028132992327365727,0.015345268542199489,0.0,0.0,0.02557544757033248,0.028132992327365727,0.02557544757033248,0.02557544757033248,0.023017902813299233,0.01278772378516624,0.017902813299232736,0.017902813299232736,0.0,0.028132992327365727,0.028132992327365727,0.02557544757033248,0.028132992327365727,0.01278772378516624,0.017902813299232736,0.02557544757033248,0.023017902813299233,0.020460358056265986,0.017902813299232736,0.017902813299232736,0.023017902813299233,0.02557544757033248,0.0076726342710997444,0.0,0.02557544757033248,0.028132992327365727,0.0025575447570332483,0.02557544757033248,0.02557544757033248,0.02557544757033248,0.023017902813299233,0.0,0.0,0.023017902813299233,0.015345268542199489,0.023017902813299233,0.02557544757033248,0.005115089514066497,0.023017902813299233,0.0025575447570332483,0.028132992327365727,0.02557544757033248,0.028132992327365727,0.02557544757033248,0.020460358056265986,0.028132992327365727,0.023017902813299233
S7_D7 hbo,0.02617801047120419,0.02617801047120419,0.015706806282722512,0.0,0.0,0.02617801047120419,0.02617801047120419,0.02617801047120419,0.02617801047120419,0.02356020942408377,0.013089005235602094,0.01832460732984293,0.01832460732984293,0.0,0.02617801047120419,0.02617801047120419,0.02617801047120419,0.02617801047120419,0.013089005235602094,0.01832460732984293,0.02617801047120419,0.02356020942408377,0.020942408376963352,0.01832460732984293,0.01832460732984293,0.02356020942408377,0.02617801047120419,0.007853403141361256,0.0,0.02617801047120419,0.02617801047120419,0.002617801047120419,0.02617801047120419,0.02617801047120419,0.02617801047120419,0.02356020942408377,0.0,0.0,0.02356020942408377,0.015706806282722512,0.02356020942408377,0.02617801047120419,0.005235602094240838,0.02356020942408377,0.002617801047120419,0.02617801047120419,0.02617801047120419,0.02617801047120419,0.02617801047120419,0.020942408376963352,0.02617801047120419,0.02356020942408377
S7_D8 hbo,0.025069637883008356,0.025069637883008356,0.016713091922005572,0.0,0.0,0.025069637883008356,0.025069637883008356,0.025069637883008356,0.025069637883008356,0.025069637883008356,0.013927576601671309,0.019498607242339833,0.019498607242339833,0.0,0.025069637883008356,0.025069637883008356,0.025069637883008356,0.025069637883008356,0.013927576601671309,0.019498607242339833,0.025069637883008356,0.025069637883008356,0.022284122562674095,0.019498607242339833,0.019498607242339833,0.025069637883008356,0.025069637883008356,0.008356545961002786,0.0,0.025069637883008356,0.025069637883008356,0.002785515320334262,0.025069637883008356,0.025069637883008356,0.025069637883008356,0.025069637883008356,0.0,0.0,0.025069637883008356,0.016713091922005572,0.025069637883008356,0.025069637883008356,0.005571030640668524,0.025069637883008356,0.002785515320334262,0.025069637883008356,0.025069637883008356,0.025069637883008356,0.025069637883008356,0.022284122562674095,0.025069637883008356,0.025069637883008356
S8_D6 hbo,0.024390243902439025,0.024390243902439025,0.018292682926829267,0.0,0.0,0.024390243902439025,0.024390243902439025,0.024390243902439025,0.024390243902439025,0.024390243902439025,0.01524390243902439,0.021341463414634148,0.021341463414634148,0.0,0.024390243902439025,0.024390243902439025,0.024390243902439025,0.024390243902439025,0.01524390243902439,0.021341463414634148,0.024390243902439025,0.024390243902439025,0.024390243902439025,0.021341463414634148,0.021341463414634148,0.024390243902439025,0.024390243902439025,0.009146341463414634,0.0,0.024390243902439025,0.024390243902439025,0.003048780487804878,0.024390243902439025,0.024390243902439025,0.024390243902439025,0.024390243902439025,0.0,0.0,0.024390243902439025,0.018292682926829267,0.024390243902439025,0.024390243902439025,0.006097560975609756,0.024390243902439025,0.003048780487804878,0.024390243902439025,0.024390243902439025,0.024390243902439025,0.024390243902439025,0.024390243902439025,0.024390243902439025,0.024390243902439025
S8_D8 hbo,0.024390243902439025,0.024390243902439025,0.018292682926829267,0.0,0.0,0.024390243902439025,0.024390243902439025,0.024390243902439025,0.024390243902439025,0.024390243902439025,0.01524390243902439,0.021341463414634148,0.021341463414634148,0.0,0.024390243902439025,0.024390243902439025,0.024390243902439025,0.024390243902439025,0.01524390243902439,0.021341463414634148,0.024390243902439025,0.024390243902439025,0.024390243902439025,0.021341463414634148,0.021341463414634148,0.024390243902439025,0.024390243902439025,0.009146341463414634,0.0,0.024390243902439025,0.024390243902439025,0.003048780487804878,0.024390243902439025,0.024390243902439025,0.024390243902439025,0.024390243902439025,0.0,0.0,0.024390243902439025,0.018292682926829267,0.024390243902439025,0.024390243902439025,0.006097560975609756,0.024390243902439025,0.003048780487804878,0.024390243902439025,0.024390243902439025,0.024390243902439025,0.024390243902439025,0.024390243902439025,0.024390243902439025,0.024390243902439025
S8_D15 hbo,0.02617801047120419,0.02617801047120419,0.015706806282722512,0.0,0.0,0.02617801047120419,0.02617801047120419,0.02617801047120419,0.02617801047120419,0.02356020942408377,0.013089005235602094,0.01832460732984293,0.01832460732984293,0.0,0.02617801047120419,0.02617801047120419,0.02617801047120419,0.02617801047120419,0.013089005235602094,0.01832460732984293,0.02617801047120419,0.02356020942408377,0.020942408376963352,0.01832460732984293,0.01832460732984293,0.02356020942408377,0.02617801047120419,0.007853403141361256,0.0,0.02617801047120419,0.02617801047120419,0.002617801047120419,0.02617801047120419,0.02617801047120419,0.02617801047120419,0.02356020942408377,0.0,0.0,0.02356020942408377,0.015706806282722512,0.02356020942408377,0.02617801047120419,0.005235602094240838,0.02356020942408377,0.002617801047120419,0.02617801047120419,0.02617801047120419,0.02617801047120419,0.02617801047120419,0.020942408376963352,0.02617801047120419,0.02356020942408377
S9_D2 hbo,0.02557544757033248,0.028132992327365727,0.015345268542199489,0.0,0.0,0.02557544757033248,0.028132992327365727,0.02557544757033248,0.02557544757033248,0.023017902813299233,0.01278772378516624,0.017902813299232736,0.017902813299232736,0.0,0.028132992327365727,0.028132992327365727,0.02557544757033248,0.028132992327365727,0.01278772378516624,0.017902813299232736,0.02557544757033248,0.023017902813299233,0.020460358056265986,0.017902813299232736,0.017902813299232736,0.023017902813299233,0.02557544757033248,0.0076726342710997444,0.0,0.02557544757033248,0.028132992327365727,0.0025575447570332483,0.02557544757033248,0.02557544757033248,0.02557544757033248,0.023017902813299233,0.0,0.0,0.023017902813299233,0.015345268542199489,0.023017902813299233,0.02557544757033248,0.005115089514066497,0.023017902813299233,0.0025575447570332483,0.028132992327365727,0.02557544757033248,0.028132992327365727,0.02557544757033248,0.020460358056265986,0.028132992327365727,0.023017902813299233
S9_D9 hbo,0.022857142857142857,0.022857142857142857,0.022857142857142857,0.0,0.0,0.022857142857142857,0.022857142857142857,0.022857142857142857,0.022857142857142857,0.022857142857142857,0.022857142857142857,0.022857142857142857,0.022857142857142857,0.0,0.022857142857142857,0.022857142857142857,0.022857142857142857,0.022857142857142857,0.022857142857142857,0.022857142857142857,0.022857142857142857,0.022857142857142857,0.022857142857142857,0.022857142857142857,0.022857142857142857,0.022857142857142857,0.022857142857142857,0.017142857142857144,0.0,0.022857142857142857,0.022857142857142857,0.005714285714285714,0.022857142857142857,0.022857142857142857,0.022857142857142857,0.022857142857142857,0.0,0.0,0.022857142857142857,0.022857142857142857,0.022857142857142857,0.022857142857142857,0.011428571428571429,0.022857142857142857,0.005714285714285714,0.022857142857142857,0.022857142857142857,0.022857142857142857,0.022857142857142857,0.022857142857142857,0.022857142857142857,0.022857142857142857
S9_D11 hbo,0.0,0.0,0.0,0.0,0.0,0.0,0.0,0.0,0.0,0.0,0.0,0.0,0.0,0.0,0.0,0.0,0.0,0.0,0.0,0.0,0.0,0.0,0.0,0.0,0.0,0.0,0.0,0.0,0.0,0.0,0.0,0.0,0.0,0.0,0.0,0.0,0.0,0.0,0.0,0.0,0.0,0.0,0.0,0.0,0.0,0.0,0.0,0.0,0.0,0.0,0.0,0.0
S10_D9 hbo,0.02557544757033248,0.028132992327365727,0.015345268542199489,0.0,0.0,0.02557544757033248,0.028132992327365727,0.02557544757033248,0.02557544757033248,0.023017902813299233,0.01278772378516624,0.017902813299232736,0.017902813299232736,0.0,0.028132992327365727,0.028132992327365727,0.02557544757033248,0.028132992327365727,0.01278772378516624,0.017902813299232736,0.02557544757033248,0.023017902813299233,0.020460358056265986,0.017902813299232736,0.017902813299232736,0.023017902813299233,0.02557544757033248,0.0076726342710997444,0.0,0.02557544757033248,0.028132992327365727,0.0025575447570332483,0.02557544757033248,0.02557544757033248,0.02557544757033248,0.023017902813299233,0.0,0.0,0.023017902813299233,0.015345268542199489,0.023017902813299233,0.02557544757033248,0.005115089514066497,0.023017902813299233,0.0025575447570332483,0.028132992327365727,0.02557544757033248,0.028132992327365727,0.02557544757033248,0.020460358056265986,0.028132992327365727,0.023017902813299233
S10_D10 hbo,0.025252525252525252,0.030303030303030304,0.015151515151515152,0.0,0.0,0.025252525252525252,0.030303030303030304,0.025252525252525252,0.025252525252525252,0.022727272727272728,0.012626262626262626,0.017676767676767676,0.017676767676767676,0.0,0.027777777777777776,0.027777777777777776,0.025252525252525252,0.027777777777777776,0.012626262626262626,0.017676767676767676,0.025252525252525252,0.022727272727272728,0.020202020202020204,0.017676767676767676,0.017676767676767676,0.022727272727272728,0.025252525252525252,0.007575757575757576,0.0,0.025252525252525252,0.030303030303030304,0.0025252525252525255,0.025252525252525252,0.025252525252525252,0.025252525252525252,0.022727272727272728,0.0,0.0,0.022727272727272728,0.015151515151515152,0.022727272727272728,0.025252525252525252,0.005050505050505051,0.022727272727272728,0.0025252525252525255,0.027777777777777776,0.025252525252525252,0.027777777777777776,0.025252525252525252,0.020202020202020204,0.03282828282828283,0.022727272727272728
S10_D12 hbo,0.022222222222222223,0.022222222222222223,0.022222222222222223,0.0,0.0,0.022222222222222223,0.022222222222222223,0.022222222222222223,0.022222222222222223,0.022222222222222223,0.022222222222222223,0.022222222222222223,0.022222222222222223,0.0,0.022222222222222223,0.022222222222222223,0.022222222222222223,0.022222222222222223,0.022222222222222223,0.022222222222222223,0.022222222222222223,0.022222222222222223,0.022222222222222223,0.022222222222222223,0.022222222222222223,0.022222222222222223,0.022222222222222223,0.022222222222222223,0.0,0.022222222222222223,0.022222222222222223,0.011111111111111112,0.022222222222222223,0.022222222222222223,0.022222222222222223,0.022222222222222223,0.0,0.0,0.022222222222222223,0.022222222222222223,0.022222222222222223,0.022222222222222223,0.022222222222222223,0.022222222222222223,0.011111111111111112,0.022222222222222223,0.022222222222222223,0.022222222222222223,0.022222222222222223,0.022222222222222223,0.022222222222222223,0.022222222222222223
S11_D9 hbo,0.02557544757033248,0.028132992327365727,0.015345268542199489,0.0,0.0,0.02557544757033248,0.028132992327365727,0.02557544757033248,0.02557544757033248,0.023017902813299233,0.01278772378516624,0.017902813299232736,0.017902813299232736,0.0,0.028132992327365727,0.028132992327365727,0.02557544757033248,0.028132992327365727,0.01278772378516624,0.017902813299232736,0.02557544757033248,0.023017902813299233,0.020460358056265986,0.017902813299232736,0.017902813299232736,0.023017902813299233,0.02557544757033248,0.0076726342710997444,0.0,0.02557544757033248,0.028132992327365727,0.0025575447570332483,0.02557544757033248,0.02557544757033248,0.02557544757033248,0.023017902813299233,0.0,0.0,0.023017902813299233,0.015345268542199489,0.023017902813299233,0.02557544757033248,0.005115089514066497,0.023017902813299233,0.0025575447570332483,0.028132992327365727,0.02557544757033248,0.028132992327365727,0.02557544757033248,0.020460358056265986,0.028132992327365727,0.023017902813299233
S11_D11 hbo,0.02557544757033248,0.028132992327365727,0.015345268542199489,0.0,0.0,0.02557544757033248,0.028132992327365727,0.02557544757033248,0.02557544757033248,0.023017902813299233,0.01278772378516624,0.017902813299232736,0.017902813299232736,0.0,0.028132992327365727,0.028132992327365727,0.02557544757033248,0.028132992327365727,0.01278772378516624,0.017902813299232736,0.02557544757033248,0.023017902813299233,0.020460358056265986,0.017902813299232736,0.017902813299232736,0.023017902813299233,0.02557544757033248,0.0076726342710997444,0.0,0.02557544757033248,0.028132992327365727,0.0025575447570332483,0.02557544757033248,0.02557544757033248,0.02557544757033248,0.023017902813299233,0.0,0.0,0.023017902813299233,0.015345268542199489,0.023017902813299233,0.02557544757033248,0.005115089514066497,0.023017902813299233,0.0025575447570332483,0.028132992327365727,0.02557544757033248,0.028132992327365727,0.02557544757033248,0.020460358056265986,0.028132992327365727,0.023017902813299233
S11_D12 hbo,0.02557544757033248,0.028132992327365727,0.015345268542199489,0.0,0.0,0.02557544757033248,0.028132992327365727,0.02557544757033248,0.02557544757033248,0.023017902813299233,0.01278772378516624,0.017902813299232736,0.017902813299232736,0.0,0.028132992327365727,0.028132992327365727,0.02557544757033248,0.028132992327365727,0.01278772378516624,0.017902813299232736,0.02557544757033248,0.023017902813299233,0.020460358056265986,0.017902813299232736,0.017902813299232736,0.023017902813299233,0.02557544757033248,0.0076726342710997444,0.0,0.02557544757033248,0.028132992327365727,0.0025575447570332483,0.02557544757033248,0.02557544757033248,0.02557544757033248,0.023017902813299233,0.0,0.0,0.023017902813299233,0.015345268542199489,0.023017902813299233,0.02557544757033248,0.005115089514066497,0.023017902813299233,0.0025575447570332483,0.028132992327365727,0.02557544757033248,0.028132992327365727,0.02557544757033248,0.020460358056265986,0.028132992327365727,0.023017902813299233
S11_D13 hbo,0.02617801047120419,0.02617801047120419,0.015706806282722512,0.0,0.0,0.02617801047120419,0.02617801047120419,0.02617801047120419,0.02617801047120419,0.02356020942408377,0.013089005235602094,0.01832460732984293,0.01832460732984293,0.0,0.02617801047120419,0.02617801047120419,0.02617801047120419,0.02617801047120419,0.013089005235602094,0.01832460732984293,0.02617801047120419,0.02356020942408377,0.020942408376963352,0.01832460732984293,0.01832460732984293,0.02356020942408377,0.02617801047120419,0.007853403141361256,0.0,0.02617801047120419,0.02617801047120419,0.002617801047120419,0.02617801047120419,0.02617801047120419,0.02617801047120419,0.02356020942408377,0.0,0.0,0.02356020942408377,0.015706806282722512,0.02356020942408377,0.02617801047120419,0.005235602094240838,0.02356020942408377,0.002617801047120419,0.02617801047120419,0.02617801047120419,0.02617801047120419,0.02617801047120419,0.020942408376963352,0.02617801047120419,0.02356020942408377
S12_D10 hbo,0.0,0.0,0.0,0.0,0.0,0.0,0.0,0.0,0.0,0.0,0.0,0.0,0.0,0.0,0.0,0.0,0.0,0.0,0.0,0.0,0.0,0.0,0.0,0.0,0.0,0.0,0.0,0.0,0.0,0.0,0.0,0.0,0.0,0.0,0.0,0.0,0.0,0.0,0.0,0.0,0.0,0.0,0.0,0.0,0.0,0.0,0.0,0.0,0.0,0.0,0.0,0.0
S12_D12 hbo,0.0,0.0,0.0,0.0,0.0,0.0,0.0,0.0,0.0,0.0,0.0,0.0,0.0,0.0,0.0,0.0,0.0,0.0,0.0,0.0,0.0,0.0,0.0,0.0,0.0,0.0,0.0,0.0,0.0,0.0,0.0,0.0,0.0,0.0,0.0,0.0,0.0,0.0,0.0,0.0,0.0,0.0,0.0,0.0,0.0,0.0,0.0,0.0,0.0,0.0,0.0,0.0
S12_D14 hbo,0.02617801047120419,0.02617801047120419,0.015706806282722512,0.0,0.0,0.02617801047120419,0.02617801047120419,0.02617801047120419,0.02617801047120419,0.02356020942408377,0.013089005235602094,0.01832460732984293,0.01832460732984293,0.0,0.02617801047120419,0.02617801047120419,0.02617801047120419,0.02617801047120419,0.013089005235602094,0.01832460732984293,0.02617801047120419,0.02356020942408377,0.020942408376963352,0.01832460732984293,0.01832460732984293,0.02356020942408377,0.02617801047120419,0.007853403141361256,0.0,0.02617801047120419,0.02617801047120419,0.002617801047120419,0.02617801047120419,0.02617801047120419,0.02617801047120419,0.02356020942408377,0.0,0.0,0.02356020942408377,0.015706806282722512,0.02356020942408377,0.02617801047120419,0.005235602094240838,0.02356020942408377,0.002617801047120419,0.02617801047120419,0.02617801047120419,0.02617801047120419,0.02617801047120419,0.020942408376963352,0.02617801047120419,0.02356020942408377
S13_D6 hbo,0.023728813559322035,0.023728813559322035,0.020338983050847456,0.0,0.0,0.023728813559322035,0.023728813559322035,0.023728813559322035,0.023728813559322035,0.023728813559322035,0.01694915254237288,0.023728813559322035,0.023728813559322035,0.0,0.023728813559322035,0.023728813559322035,0.023728813559322035,0.023728813559322035,0.01694915254237288,0.023728813559322035,0.023728813559322035,0.023728813559322035,0.023728813559322035,0.023728813559322035,0.023728813559322035,0.023728813559322035,0.023728813559322035,0.010169491525423728,0.0,0.023728813559322035,0.023728813559322035,0.003389830508474576,0.023728813559322035,0.023728813559322035,0.023728813559322035,0.023728813559322035,0.0,0.0,0.023728813559322035,0.020338983050847456,0.023728813559322035,0.023728813559322035,0.006779661016949152,0.023728813559322035,0.003389830508474576,0.023728813559322035,0.023728813559322035,0.023728813559322035,0.023728813559322035,0.023728813559322035,0.023728813559322035,0.023728813559322035
S13_D11 hbo,0.02617801047120419,0.02617801047120419,0.015706806282722512,0.0,0.0,0.02617801047120419,0.02617801047120419,0.02617801047120419,0.02617801047120419,0.02356020942408377,0.013089005235602094,0.01832460732984293,0.01832460732984293,0.0,0.02617801047120419,0.02617801047120419,0.02617801047120419,0.02617801047120419,0.013089005235602094,0.01832460732984293,0.02617801047120419,0.02356020942408377,0.020942408376963352,0.01832460732984293,0.01832460732984293,0.02356020942408377,0.02617801047120419,0.007853403141361256,0.0,0.02617801047120419,0.02617801047120419,0.002617801047120419,0.02617801047120419,0.02617801047120419,0.02617801047120419,0.02356020942408377,0.0,0.0,0.02356020942408377,0.015706806282722512,0.02356020942408377,0.02617801047120419,0.005235602094240838,0.02356020942408377,0.002617801047120419,0.02617801047120419,0.02617801047120419,0.02617801047120419,0.02617801047120419,0.020942408376963352,0.02617801047120419,0.02356020942408377
S13_D13 hbo,0.02557544757033248,0.028132992327365727,0.015345268542199489,0.0,0.0,0.02557544757033248,0.028132992327365727,0.02557544757033248,0.02557544757033248,0.023017902813299233,0.01278772378516624,0.017902813299232736,0.017902813299232736,0.0,0.028132992327365727,0.028132992327365727,0.02557544757033248,0.028132992327365727,0.01278772378516624,0.017902813299232736,0.02557544757033248,0.023017902813299233,0.020460358056265986,0.017902813299232736,0.017902813299232736,0.023017902813299233,0.02557544757033248,0.0076726342710997444,0.0,0.02557544757033248,0.028132992327365727,0.0025575447570332483,0.02557544757033248,0.02557544757033248,0.02557544757033248,0.023017902813299233,0.0,0.0,0.023017902813299233,0.015345268542199489,0.023017902813299233,0.02557544757033248,0.005115089514066497,0.023017902813299233,0.0025575447570332483,0.028132992327365727,0.02557544757033248,0.028132992327365727,0.02557544757033248,0.020460358056265986,0.028132992327365727,0.023017902813299233
S13_D15 hbo,0.022556390977443608,0.022556390977443608,0.022556390977443608,0.0,0.0,0.022556390977443608,0.022556390977443608,0.022556390977443608,0.022556390977443608,0.022556390977443608,0.022556390977443608,0.022556390977443608,0.022556390977443608,0.0,0.022556390977443608,0.022556390977443608,0.022556390977443608,0.022556390977443608,0.022556390977443608,0.022556390977443608,0.022556390977443608,0.022556390977443608,0.022556390977443608,0.022556390977443608,0.022556390977443608,0.022556390977443608,0.022556390977443608,0.022556390977443608,0.0,0.022556390977443608,0.022556390977443608,0.007518796992481203,0.022556390977443608,0.022556390977443608,0.022556390977443608,0.022556390977443608,0.0,0.0,0.022556390977443608,0.022556390977443608,0.022556390977443608,0.022556390977443608,0.015037593984962405,0.022556390977443608,0.007518796992481203,0.022556390977443608,0.022556390977443608,0.022556390977443608,0.022556390977443608,0.022556390977443608,0.022556390977443608,0.022556390977443608
S14_D12 hbo,0.02617801047120419,0.02617801047120419,0.015706806282722512,0.0,0.0,0.02617801047120419,0.02617801047120419,0.02617801047120419,0.02617801047120419,0.02356020942408377,0.013089005235602094,0.01832460732984293,0.01832460732984293,0.0,0.02617801047120419,0.02617801047120419,0.02617801047120419,0.02617801047120419,0.013089005235602094,0.01832460732984293,0.02617801047120419,0.02356020942408377,0.020942408376963352,0.01832460732984293,0.01832460732984293,0.02356020942408377,0.02617801047120419,0.007853403141361256,0.0,0.02617801047120419,0.02617801047120419,0.002617801047120419,0.02617801047120419,0.02617801047120419,0.02617801047120419,0.02356020942408377,0.0,0.0,0.02356020942408377,0.015706806282722512,0.02356020942408377,0.02617801047120419,0.005235602094240838,0.02356020942408377,0.002617801047120419,0.02617801047120419,0.02617801047120419,0.02617801047120419,0.02617801047120419,0.020942408376963352,0.02617801047120419,0.02356020942408377
S14_D13 hbo,0.022222222222222223,0.022222222222222223,0.022222222222222223,0.0,0.0,0.022222222222222223,0.022222222222222223,0.022222222222222223,0.022222222222222223,0.022222222222222223,0.022222222222222223,0.022222222222222223,0.022222222222222223,0.0,0.022222222222222223,0.022222222222222223,0.022222222222222223,0.022222222222222223,0.022222222222222223,0.022222222222222223,0.022222222222222223,0.022222222222222223,0.022222222222222223,0.022222222222222223,0.022222222222222223,0.022222222222222223,0.022222222222222223,0.022222222222222223,0.0,0.022222222222222223,0.022222222222222223,0.011111111111111112,0.022222222222222223,0.022222222222222223,0.022222222222222223,0.022222222222222223,0.0,0.0,0.022222222222222223,0.022222222222222223,0.022222222222222223,0.022222222222222223,0.022222222222222223,0.022222222222222223,0.011111111111111112,0.022222222222222223,0.022222222222222223,0.022222222222222223,0.022222222222222223,0.022222222222222223,0.022222222222222223,0.022222222222222223
S14_D14 hbo,0.02531645569620253,0.030379746835443037,0.015189873417721518,0.0,0.0,0.02531645569620253,0.030379746835443037,0.02531645569620253,0.02531645569620253,0.02278481012658228,0.012658227848101266,0.017721518987341773,0.017721518987341773,0.0,0.027848101265822784,0.027848101265822784,0.02531645569620253,0.027848101265822784,0.012658227848101266,0.017721518987341773,0.02531645569620253,0.02278481012658228,0.020253164556962026,0.017721518987341773,0.017721518987341773,0.02278481012658228,0.02531645569620253,0.007594936708860759,0.0,0.02531645569620253,0.030379746835443037,0.002531645569620253,0.02531645569620253,0.02531645569620253,0.02531645569620253,0.02278481012658228,0.0,0.0,0.02278481012658228,0.015189873417721518,0.02278481012658228,0.02531645569620253,0.005063291139240506,0.02278481012658228,0.002531645569620253,0.027848101265822784,0.02531645569620253,0.027848101265822784,0.02531645569620253,0.020253164556962026,0.030379746835443037,0.02278481012658228
S14_D16 hbo,0.02557544757033248,0.028132992327365727,0.015345268542199489,0.0,0.0,0.02557544757033248,0.028132992327365727,0.02557544757033248,0.02557544757033248,0.023017902813299233,0.01278772378516624,0.017902813299232736,0.017902813299232736,0.0,0.028132992327365727,0.028132992327365727,0.02557544757033248,0.028132992327365727,0.01278772378516624,0.017902813299232736,0.02557544757033248,0.023017902813299233,0.020460358056265986,0.017902813299232736,0.017902813299232736,0.023017902813299233,0.02557544757033248,0.0076726342710997444,0.0,0.02557544757033248,0.028132992327365727,0.0025575447570332483,0.02557544757033248,0.02557544757033248,0.02557544757033248,0.023017902813299233,0.0,0.0,0.023017902813299233,0.015345268542199489,0.023017902813299233,0.02557544757033248,0.005115089514066497,0.023017902813299233,0.0025575447570332483,0.028132992327365727,0.02557544757033248,0.028132992327365727,0.02557544757033248,0.020460358056265986,0.028132992327365727,0.023017902813299233
S15_D13 hbo,0.02531645569620253,0.030379746835443037,0.015189873417721518,0.0,0.0,0.02531645569620253,0.030379746835443037,0.02531645569620253,0.02531645569620253,0.02278481012658228,0.012658227848101266,0.017721518987341773,0.017721518987341773,0.0,0.027848101265822784,0.027848101265822784,0.02531645569620253,0.027848101265822784,0.012658227848101266,0.017721518987341773,0.02531645569620253,0.02278481012658228,0.020253164556962026,0.017721518987341773,0.017721518987341773,0.02278481012658228,0.02531645569620253,0.007594936708860759,0.0,0.02531645569620253,0.030379746835443037,0.002531645569620253,0.02531645569620253,0.02531645569620253,0.02531645569620253,0.02278481012658228,0.0,0.0,0.02278481012658228,0.015189873417721518,0.02278481012658228,0.02531645569620253,0.005063291139240506,0.02278481012658228,0.002531645569620253,0.027848101265822784,0.02531645569620253,0.027848101265822784,0.02531645569620253,0.020253164556962026,0.030379746835443037,0.02278481012658228
S15_D15 hbo,0.02557544757033248,0.028132992327365727,0.015345268542199489,0.0,0.0,0.02557544757033248,0.028132992327365727,0.02557544757033248,0.02557544757033248,0.023017902813299233,0.01278772378516624,0.017902813299232736,0.017902813299232736,0.0,0.028132992327365727,0.028132992327365727,0.02557544757033248,0.028132992327365727,0.01278772378516624,0.017902813299232736,0.02557544757033248,0.023017902813299233,0.020460358056265986,0.017902813299232736,0.017902813299232736,0.023017902813299233,0.02557544757033248,0.0076726342710997444,0.0,0.02557544757033248,0.028132992327365727,0.0025575447570332483,0.02557544757033248,0.02557544757033248,0.02557544757033248,0.023017902813299233,0.0,0.0,0.023017902813299233,0.015345268542199489,0.023017902813299233,0.02557544757033248,0.005115089514066497,0.023017902813299233,0.0025575447570332483,0.028132992327365727,0.02557544757033248,0.028132992327365727,0.02557544757033248,0.020460358056265986,0.028132992327365727,0.023017902813299233
S15_D16 hbo,0.025069637883008356,0.025069637883008356,0.016713091922005572,0.0,0.0,0.025069637883008356,0.025069637883008356,0.025069637883008356,0.025069637883008356,0.025069637883008356,0.013927576601671309,0.019498607242339833,0.019498607242339833,0.0,0.025069637883008356,0.025069637883008356,0.025069637883008356,0.025069637883008356,0.013927576601671309,0.019498607242339833,0.025069637883008356,0.025069637883008356,0.022284122562674095,0.019498607242339833,0.019498607242339833,0.025069637883008356,0.025069637883008356,0.008356545961002786,0.0,0.025069637883008356,0.025069637883008356,0.002785515320334262,0.025069637883008356,0.025069637883008356,0.025069637883008356,0.025069637883008356,0.0,0.0,0.025069637883008356,0.016713091922005572,0.025069637883008356,0.025069637883008356,0.005571030640668524,0.025069637883008356,0.002785515320334262,0.025069637883008356,0.025069637883008356,0.025069637883008356,0.025069637883008356,0.022284122562674095,0.025069637883008356,0.025069637883008356
S16_D14 hbo,0.025252525252525252,0.030303030303030304,0.015151515151515152,0.0,0.0,0.025252525252525252,0.030303030303030304,0.025252525252525252,0.025252525252525252,0.022727272727272728,0.012626262626262626,0.017676767676767676,0.017676767676767676,0.0,0.027777777777777776,0.027777777777777776,0.025252525252525252,0.027777777777777776,0.012626262626262626,0.017676767676767676,0.025252525252525252,0.022727272727272728,0.020202020202020204,0.017676767676767676,0.017676767676767676,0.022727272727272728,0.025252525252525252,0.007575757575757576,0.0,0.025252525252525252,0.030303030303030304,0.0025252525252525255,0.025252525252525252,0.025252525252525252,0.025252525252525252,0.022727272727272728,0.0,0.0,0.022727272727272728,0.015151515151515152,0.022727272727272728,0.025252525252525252,0.005050505050505051,0.022727272727272728,0.0025252525252525255,0.027777777777777776,0.025252525252525252,0.027777777777777776,0.025252525252525252,0.020202020202020204,0.03282828282828283,0.022727272727272728
S16_D16 hbo,0.02617801047120419,0.02617801047120419,0.015706806282722512,0.0,0.0,0.02617801047120419,0.02617801047120419,0.02617801047120419,0.02617801047120419,0.02356020942408377,0.013089005235602094,0.01832460732984293,0.01832460732984293,0.0,0.02617801047120419,0.02617801047120419,0.02617801047120419,0.02617801047120419,0.013089005235602094,0.01832460732984293,0.02617801047120419,0.02356020942408377,0.020942408376963352,0.01832460732984293,0.01832460732984293,0.02356020942408377,0.02617801047120419,0.007853403141361256,0.0,0.02617801047120419,0.02617801047120419,0.002617801047120419,0.02617801047120419,0.02617801047120419,0.02617801047120419,0.02356020942408377,0.0,0.0,0.02356020942408377,0.015706806282722512,0.02356020942408377,0.02617801047120419,0.005235602094240838,0.02356020942408377,0.002617801047120419,0.02617801047120419,0.02617801047120419,0.02617801047120419,0.02617801047120419,0.020942408376963352,0.02617801047120419,0.02356020942408377
