,S1_D1 hbo,S1_D3 hbo,S2_D1 hbo,S2_D2 hbo,S2_D4 hbo,S3_D1 hbo,S3_D3 hbo,S3_D4 hbo,S3_D5 hbo,S4_D2 hbo,S4_D4 hbo,S4_D6 hbo,S4_D11 hbo,S5_D3 hbo,S5_D5 hbo,S5_D7 hbo,S6_D4 hbo,S6_D5 hbo,S6_D6 hbo,S6_D8 hbo,S7_D5 hbo,S7_D7 hbo,S7_D8 hbo,S8_D6 hbo,S8_D8 hbo,S8_D15 hbo,S9_D2 hbo,S9_D9 hbo,S9_D11 hbo,S10_D9 hbo,S10_D10 hbo,S10_D12 hbo,S11_D9 hbo,S11_D11 hbo,S11_D12 hbo,S11_D13 hbo,S12_D10 hbo,S12_D12 hbo,S12_D14 hbo,S13_D6 hbo,S13_D11 hbo,S13_D13 hbo,S13_D15 hbo,S14_D12 hbo,S14_D13 hbo,S14_D14 hbo,S14_D16 hbo,S15_D13 hbo,S15_D15 hbo,S15_D16 hbo,S16_D14 hbo,S16_D16 hbo
S1_D1 hbo,0.04326923076923077,0.02403846153846154,0.036057692307692304,0.021634615384615384,0.026442307692307692,0.0,0.038461538461538464,0.0,0.014423076923076924,0.036057692307692304,0.021634615384615384,0.036057692307692304,0.040865384615384616,0.019230769230769232,0.009615384615384616,0.04326923076923077,0.019230769230769232,0.038461538461538464,0.009615384615384616,0.038461538461538464,0.009615384615384616,0.03125,0.026442307692307692,0.040865384615384616,0.009615384615384616,0.0,0.019230769230769232,0.0,0.03365384615384615,0.0,0.0,0.0,0.002403846153846154,0.02403846153846154,0.0,0.028846153846153848,0.0,0.0,0.0,0.026442307692307692,0.04326923076923077,0.03365384615384615,0.026442307692307692,0.0,0.014423076923076924,0.04326923076923077,0.0,0.019230769230769232,0.019230769230769232,0.01201923076923077,0.0,0.019230769230769232
S1_D3 hbo,0.06015037593984962,0.12030075187969924,0.045112781954887216,0.0,0.007518796992481203,0.0,0.05263157894736842,0.0,0.0,0.03759398496240601,0.0,0.045112781954887216,0.05263157894736842,0.03007518796992481,0.0,0.06015037593984962,0.0,0.045112781954887216,0.0,0.045112781954887216,0.0,0.05263157894736842,0.007518796992481203,0.05263157894736842,0.0,0.0,0.0,0.0,0.03007518796992481,0.0,0.0,0.0,0.0,0.0,0.0,0.015037593984962405,0.0,0.0,0.0,0.007518796992481203,0.06015037593984962,0.03007518796992481,0.022556390977443608,0.0,0.0,0.06015037593984962,0.0,0.0,0.06015037593984962,0.0,0.0,0.0
S2_D1 hbo,0.04189944134078212,0.0223463687150838,0.03910614525139665,0.019553072625698324,0.025139664804469275,0.0,0.04189944134078212,0.0,0.01675977653631285,0.036312849162011177,0.019553072625698324,0.03910614525139665,0.04189944134078212,0.0223463687150838,0.0111731843575419,0.04189944134078212,0.01675977653631285,0.03910614525139665,0.00558659217877095,0.03910614525139665,0.008379888268156424,0.036312849162011177,0.025139664804469275,0.04189944134078212,0.0111731843575419,0.0,0.01675977653631285,0.0,0.0335195530726257,0.0,0.0,0.0,0.0,0.0223463687150838,0.0,0.027932960893854747,0.0,0.0,0.0,0.025139664804469275,0.04189944134078212,0.0335195530726257,0.030726256983240222,0.0,0.0111731843575419,0.04189944134078212,0.0,0.01675977653631285,0.019553072625698324,0.013966480446927373,0.0,0.0223463687150838
S2_D2 hbo,0.034482758620689655,0.0034482758620689655,0.03103448275862069,0.03103448275862069,0.034482758620689655,0.0,0.03103448275862069,0.0,0.020689655172413793,0.034482758620689655,0.03103448275862069,0.03103448275862069,0.034482758620689655,0.013793103448275862,0.013793103448275862,0.034482758620689655,0.027586206896551724,0.034482758620689655,0.013793103448275862,0.034482758620689655,0.013793103448275862,0.020689655172413793,0.034482758620689655,0.034482758620689655,0.013793103448275862,0.0,0.027586206896551724,0.0,0.034482758620689655,0.0,0.0,0.0,0.0034482758620689655,0.034482758620689655,0.0,0.034482758620689655,0.0,0.0,0.0,0.034482758620689655,0.034482758620689655,0.034482758620689655,0.027586206896551724,0.0,0.020689655172413793,0.034482758620689655,0.0,0.027586206896551724,0.0,0.017241379310344827,0.0,0.027586206896551724
S2_D4 hbo,0.036036036036036036,0.009009009009009009,0.03303303303303303,0.02702702702702703,0.03303303303303303,0.0,0.03303303303303303,0.0,0.018018018018018018,0.036036036036036036,0.02702702702702703,0.03303303303303303,0.036036036036036036,0.018018018018018018,0.012012012012012012,0.036036036036036036,0.024024024024024024,0.036036036036036036,0.012012012012012012,0.036036036036036036,0.012012012012012012,0.024024024024024024,0.03303303303303303,0.036036036036036036,0.012012012012012012,0.0,0.024024024024024024,0.0,0.036036036036036036,0.0,0.0,0.0,0.003003003003003003,0.03003003003003003,0.0,0.036036036036036036,0.0,0.0,0.0,0.03303303303303303,0.036036036036036036,0.036036036036036036,0.03003003003003003,0.0,0.018018018018018018,0.036036036036036036,0.0,0.024024024024024024,0.006006006006006006,0.015015015015015015,0.0,0.024024024024024024
S3_D1 hbo,0.0,0.0,0.0,0.0,0.0,0.0,0.0,0.0,0.0,0.0,0.0,0.0,0.0,0.0,0.0,0.0,0.0,0.0,0.0,0.0,0.0,0.0,0.0,0.0,0.0,0.0,0.0,0.0,0.0,0.0,0.0,0.0,0.0,0.0,0.0,0.0,0.0,0.0,0.0,0.0,0.0,0.0,0.0,0.0,0.0,0.0,0.0,0.0,0.0,0.0,0.0,0.0
S3_D3 hbo,0.04395604395604396,0.024725274725274724,0.038461538461538464,0.019230769230769232,0.024725274725274724,0.0,0.04120879120879121,0.0,0.016483516483516484,0.03571428571428571,0.019230769230769232,0.038461538461538464,0.04120879120879121,0.02197802197802198,0.01098901098901099,0.04395604395604396,0.016483516483516484,0.038461538461538464,0.005494505494505495,0.038461538461538464,0.008241758241758242,0.03571428571428571,0.024725274725274724,0.04120879120879121,0.01098901098901099,0.0,0.016483516483516484,0.0,0.03296703296703297,0.0,0.0,0.0,0.0,0.02197802197802198,0.0,0.027472527472527472,0.0,0.0,0.0,0.024725274725274724,0.04395604395604396,0.03296703296703297,0.03021978021978022,0.0,0.01098901098901099,0.04395604395604396,0.0,0.016483516483516484,0.02197802197802198,0.013736263736263736,0.0,0.02197802197802198
S3_D4 hbo,0.0,0.0,0.0,0.0,0.0,0.0,0.0,0.0,0.0,0.0,0.0,0.0,0.0,0.0,0.0,0.0,0.0,0.0,0.0,0.0,0.0,0.0,0.0,0.0,0.0,0.0,0.0,0.0,0.0,0.0,0.0,0.0,0.0,0.0,0.0,0.0,0.0,0.0,0.0,0.0,0.0,0.0,0.0,0.0,0.0,0.0,0.0,0.0,0.0,0.0,0.0,0.0
S3_D5 hbo,0.03278688524590164,0.0,0.03278688524590164,0.03278688524590164,0.03278688524590164,0.0,0.03278688524590164,0.0,0.0273224043715847,0.03278688524590164,0.03278688524590164,0.03278688524590164,0.03278688524590164,0.01639344262295082,0.02185792349726776,0.03278688524590164,0.0273224043715847,0.03278688524590164,0.00546448087431694,0.03278688524590164,0.01092896174863388,0.0273224043715847,0.03278688524590164,0.03278688524590164,0.01639344262295082,0.0,0.0273224043715847,0.0,0.03278688524590164,0.0,0.0,0.0,0.0,0.03278688524590164,0.0,0.03278688524590164,0.0,0.0,0.0,0.03278688524590164,0.03278688524590164,0.03278688524590164,0.03278688524590164,0.0,0.01639344262295082,0.03278688524590164,0.0,0.0273224043715847,0.0,0.02185792349726776,0.0,0.03278688524590164
S4_D2 hbo,0.04,0.018666666666666668,0.04,0.021333333333333333,0.02666666666666667,0.0,0.04,0.0,0.016,0.037333333333333336,0.021333333333333333,0.04,0.04,0.021333333333333333,0.010666666666666666,0.04,0.018666666666666668,0.04,0.008,0.04,0.010666666666666666,0.032,0.02666666666666667,0.04,0.010666666666666666,0.0,0.018666666666666668,0.0,0.034666666666666665,0.0,0.0,0.0,0.0,0.024,0.0,0.029333333333333333,0.0,0.0,0.0,0.02666666666666667,0.04,0.034666666666666665,0.029333333333333333,0.0,0.013333333333333334,0.04,0.0,0.018666666666666668,0.016,0.013333333333333334,0.0,0.021333333333333333
S4_D4 hbo,0.034482758620689655,0.0034482758620689655,0.03103448275862069,0.03103448275862069,0.034482758620689655,0.0,0.03103448275862069,0.0,0.020689655172413793,0.034482758620689655,0.03103448275862069,0.03103448275862069,0.034482758620689655,0.013793103448275862,0.013793103448275862,0.034482758620689655,0.027586206896551724,0.034482758620689655,0.013793103448275862,0.034482758620689655,0.013793103448275862,0.020689655172413793,0.034482758620689655,0.034482758620689655,0.013793103448275862,0.0,0.027586206896551724,0.0,0.034482758620689655,0.0,0.0,0.0,0.0034482758620689655,0.034482758620689655,0.0,0.034482758620689655,0.0,0.0,0.0,0.034482758620689655,0.034482758620689655,0.034482758620689655,0.027586206896551724,0.0,0.020689655172413793,0.034482758620689655,0.0,0.027586206896551724,0.0,0.017241379310344827,0.0,0.027586206896551724
S4_D6 hbo,0.04189944134078212,0.0223463687150838,0.03910614525139665,0.019553072625698324,0.025139664804469275,0.0,0.04189944134078212,0.0,0.01675977653631285,0.036312849162011177,0.019553072625698324,0.03910614525139665,0.04189944134078212,0.0223463687150838,0.0111731843575419,0.04189944134078212,0.01675977653631285,0.03910614525139665,0.00558659217877095,0.03910614525139665,0.008379888268156424,0.036312849162011177,0.025139664804469275,0.04189944134078212,0.0111731843575419,0.0,0.01675977653631285,0.0,0.0335195530726257,0.0,0.0,0.0,0.0,0.0223463687150838,0.0,0.027932960893854747,0.0,0.0,0.0,0.025139664804469275,0.04189944134078212,0.0335195530726257,0.030726256983240222,0.0,0.0111731843575419,0.04189944134078212,0.0,0.01675977653631285,0.019553072625698324,0.013966480446927373,0.0,0.0223463687150838
S4_D11 hbo,0.043373493975903614,0.021686746987951807,0.03614457831325301,0.021686746987951807,0.02650602409638554,0.0,0.03855421686746988,0.0,0.014457831325301205,0.03614457831325301,0.021686746987951807,0.03614457831325301,0.04096385542168675,0.01927710843373494,0.00963855421686747,0.043373493975903614,0.01927710843373494,0.03855421686746988,0.00963855421686747,0.03855421686746988,0.00963855421686747,0.03132530120481928,0.02650602409638554,0.04096385542168675,0.00963855421686747,0.0,0.01927710843373494,0.0,0.033734939759036145,0.0,0.0,0.0,0.0024096385542168677,0.024096385542168676,0.0,0.02891566265060241,0.0,0.0,0.0,0.02650602409638554,0.043373493975903614,0.033734939759036145,0.02650602409638554,0.0,0.014457831325301205,0.043373493975903614,0.0,0.01927710843373494,0.01927710843373494,0.012048192771084338,0.0,0.01927710843373494
S5_D3 hbo,0.045714285714285714,0.03428571428571429,0.045714285714285714,0.011428571428571429,0.022857142857142857,0.0,0.045714285714285714,0.0,0.005714285714285714,0.045714285714285714,0.011428571428571429,0.045714285714285714,0.045714285714285714,0.04,0.011428571428571429,0.045714285714285714,0.005714285714285714,0.045714285714285714,0.0,0.045714285714285714,0.0,0.045714285714285714,0.022857142857142857,0.045714285714285714,0.0,0.0,0.005714285714285714,0.0,0.04,0.0,0.0,0.0,0.0,0.017142857142857144,0.0,0.02857142857142857,0.0,0.0,0.0,0.022857142857142857,0.045714285714285714,0.04,0.03428571428571429,0.0,0.0,0.045714285714285714,0.0,0.005714285714285714,0.02857142857142857,0.0,0.0,0.017142857142857144
S5_D5 hbo,0.036036036036036036,0.009009009009009009,0.036036036036036036,0.02702702702702703,0.036036036036036036,0.0,0.036036036036036036,0.0,0.018018018018018018,0.036036036036036036,0.02702702702702703,0.036036036036036036,0.036036036036036036,0.036036036036036036,0.02702702702702703,0.036036036036036036,0.018018018018018018,0.036036036036036036,0.0,0.036036036036036036,0.0,0.036036036036036036,0.036036036036036036,0.036036036036036036,0.0,0.0,0.018018018018018018,0.0,0.036036036036036036,0.0,0.0,0.0,0.0,0.036036036036036036,0.0,0.036036036036036036,0.0,0.0,0.0,0.036036036036036036,0.036036036036036036,0.036036036036036036,0.036036036036036036,0.0,0.0,0.036036036036036036,0.0,0.018018018018018018,0.0,0.009009009009009009,0.0,0.036036036036036036
S5_D7 hbo,0.04326923076923077,0.02403846153846154,0.036057692307692304,0.021634615384615384,0.026442307692307692,0.0,0.038461538461538464,0.0,0.014423076923076924,0.036057692307692304,0.021634615384615384,0.036057692307692304,0.040865384615384616,0.019230769230769232,0.009615384615384616,0.04326923076923077,0.019230769230769232,0.038461538461538464,0.009615384615384616,0.038461538461538464,0.009615384615384616,0.03125,0.026442307692307692,0.040865384615384616,0.009615384615384616,0.0,0.019230769230769232,0.0,0.03365384615384615,0.0,0.0,0.0,0.002403846153846154,0.02403846153846154,0.0,0.028846153846153848,0.0,0.0,0.0,0.026442307692307692,0.04326923076923077,0.03365384615384615,0.026442307692307692,0.0,0.014423076923076924,0.04326923076923077,0.0,0.019230769230769232,0.019230769230769232,0.01201923076923077,0.0,0.019230769230769232
S6_D4 hbo,0.03383458646616541,0.0,0.03007518796992481,0.03383458646616541,0.03383458646616541,0.0,0.03007518796992481,0.0,0.022556390977443608,0.03383458646616541,0.03383458646616541,0.03007518796992481,0.03383458646616541,0.011278195488721804,0.015037593984962405,0.03383458646616541,0.03007518796992481,0.03383458646616541,0.015037593984962405,0.03383458646616541,0.015037593984962405,0.018796992481203006,0.03383458646616541,0.03383458646616541,0.015037593984962405,0.0,0.03007518796992481,0.0,0.03383458646616541,0.0,0.0,0.0,0.0037593984962406013,0.03383458646616541,0.0,0.03383458646616541,0.0,0.0,0.0,0.03383458646616541,0.03383458646616541,0.03383458646616541,0.02631578947368421,0.0,0.022556390977443608,0.03383458646616541,0.0,0.03007518796992481,0.0,0.018796992481203006,0.0,0.02631578947368421
S6_D5 hbo,0.04156479217603912,0.019559902200488997,0.03667481662591687,0.022004889975550123,0.02689486552567237,0.0,0.039119804400977995,0.0,0.014669926650366748,0.03667481662591687,0.022004889975550123,0.03667481662591687,0.04156479217603912,0.019559902200488997,0.009779951100244499,0.04156479217603912,0.019559902200488997,0.039119804400977995,0.009779951100244499,0.039119804400977995,0.009779951100244499,0.03178484107579462,0.02689486552567237,0.04156479217603912,0.009779951100244499,0.0,0.019559902200488997,0.0,0.034229828850855744,0.0,0.0,0.0,0.0024449877750611247,0.02444987775061125,0.0,0.029339853300733496,0.0,0.0,0.0,0.02689486552567237,0.04156479217603912,0.034229828850855744,0.02689486552567237,0.0,0.014669926650366748,0.04156479217603912,0.0,0.019559902200488997,0.017114914425427872,0.012224938875305624,0.0,0.019559902200488997
S6_D6 hbo,0.032520325203252036,0.0,0.032520325203252036,0.032520325203252036,0.032520325203252036,0.0,0.032520325203252036,0.0,0.024390243902439025,0.032520325203252036,0.032520325203252036,0.032520325203252036,0.032520325203252036,0.0,0.0,0.032520325203252036,0.032520325203252036,0.032520325203252036,0.024390243902439025,0.032520325203252036,0.032520325203252036,0.008130081300813009,0.032520325203252036,0.032520325203252036,0.024390243902439025,0.0,0.032520325203252036,0.0,0.032520325203252036,0.0,0.0,0.0,0.0,0.032520325203252036,0.0,0.032520325203252036,0.0,0.0,0.0,0.032520325203252036,0.032520325203252036,0.032520325203252036,0.024390243902439025,0.0,0.032520325203252036,0.032520325203252036,0.0,0.032520325203252036,0.0,0.024390243902439025,0.0,0.024390243902439025
S6_D8 hbo,0.04155844155844156,0.02077922077922078,0.03896103896103896,0.02077922077922078,0.025974025974025976,0.0,0.04155844155844156,0.0,0.015584415584415584,0.03636363636363636,0.02077922077922078,0.03896103896103896,0.04155844155844156,0.02077922077922078,0.01038961038961039,0.04155844155844156,0.01818181818181818,0.03896103896103896,0.007792207792207792,0.03896103896103896,0.01038961038961039,0.033766233766233764,0.025974025974025976,0.04155844155844156,0.01038961038961039,0.0,0.01818181818181818,0.0,0.033766233766233764,0.0,0.0,0.0,0.0,0.023376623376623377,0.0,0.02857142857142857,0.0,0.0,0.0,0.025974025974025976,0.04155844155844156,0.033766233766233764,0.02857142857142857,0.0,0.012987012987012988,0.04155844155844156,0.0,0.01818181818181818,0.01818181818181818,0.012987012987012988,0.0,0.02077922077922078
S7_D5 hbo,0.03125,0.0,0.03125,0.03125,0.03125,0.0,0.03125,0.0,0.03125,0.03125,0.03125,0.03125,0.03125,0.0,0.0078125,0.03125,0.03125,0.03125,0.015625,0.03125,0.0234375,0.015625,0.03125,0.03125,0.03125,0.0,0.03125,0.0,0.03125,0.0,0.0,0.0,0.0,0.03125,0.0,0.03125,0.0,0.0,0.0,0.03125,0.03125,0.03125,0.03125,0.0,0.03125,0.03125,0.0,0.03125,0.0,0.03125,0.0,0.03125
S7_D7 hbo,0.048507462686567165,0.033582089552238806,0.041044776119402986,0.014925373134328358,0.022388059701492536,0.0,0.04477611940298507,0.0,0.011194029850746268,0.03731343283582089,0.014925373134328358,0.041044776119402986,0.04477611940298507,0.029850746268656716,0.014925373134328358,0.048507462686567165,0.011194029850746268,0.041044776119402986,0.0,0.041044776119402986,0.0,0.04477611940298507,0.022388059701492536,0.04477611940298507,0.0037313432835820895,0.0,0.011194029850746268,0.0,0.033582089552238806,0.0,0.0,0.0,0.0,0.018656716417910446,0.0,0.026119402985074626,0.0,0.0,0.0,0.022388059701492536,0.048507462686567165,0.033582089552238806,0.029850746268656716,0.0,0.0037313432835820895,0.048507462686567165,0.0,0.011194029850746268,0.029850746268656716,0.007462686567164179,0.0,0.018656716417910446
S7_D8 hbo,0.036036036036036036,0.009009009009009009,0.03303303303303303,0.02702702702702703,0.03303303303303303,0.0,0.03303303303303303,0.0,0.018018018018018018,0.036036036036036036,0.02702702702702703,0.03303303303303303,0.036036036036036036,0.018018018018018018,0.012012012012012012,0.036036036036036036,0.024024024024024024,0.036036036036036036,0.012012012012012012,0.036036036036036036,0.012012012012012012,0.024024024024024024,0.03303303303303303,0.036036036036036036,0.012012012012012012,0.0,0.024024024024024024,0.0,0.036036036036036036,0.0,0.0,0.0,0.003003003003003003,0.03003003003003003,0.0,0.036036036036036036,0.0,0.0,0.0,0.03303303303303303,0.036036036036036036,0.036036036036036036,0.03003003003003003,0.0,0.018018018018018018,0.036036036036036036,0.0,0.024024024024024024,0.006006006006006006,0.015015015015015015,0.0,0.024024024024024024
S8_D6 hbo,0.043373493975903614,0.021686746987951807,0.03614457831325301,0.021686746987951807,0.02650602409638554,0.0,0.03855421686746988,0.0,0.014457831325301205,0.03614457831325301,0.021686746987951807,0.03614457831325301,0.04096385542168675,0.01927710843373494,0.00963855421686747,0.043373493975903614,0.01927710843373494,0.03855421686746988,0.00963855421686747,0.03855421686746988,0.00963855421686747,0.03132530120481928,0.02650602409638554,0.04096385542168675,0.00963855421686747,0.0,0.01927710843373494,0.0,0.033734939759036145,0.0,0.0,0.0,0.0024096385542168677,0.024096385542168676,0.0,0.02891566265060241,0.0,0.0,0.0,0.02650602409638554,0.043373493975903614,0.033734939759036145,0.02650602409638554,0.0,0.014457831325301205,0.043373493975903614,0.0,0.01927710843373494,0.01927710843373494,0.012048192771084338,0.0,0.01927710843373494
S8_D8 hbo,0.031496062992125984,0.0,0.031496062992125984,0.031496062992125984,0.031496062992125984,0.0,0.031496062992125984,0.0,0.031496062992125984,0.031496062992125984,0.031496062992125984,0.031496062992125984,0.031496062992125984,0.007874015748031496,0.015748031496062992,0.031496062992125984,0.031496062992125984,0.031496062992125984,0.007874015748031496,0.031496062992125984,0.015748031496062992,0.023622047244094488,0.031496062992125984,0.031496062992125984,0.023622047244094488,0.0,0.031496062992125984,0.0,0.031496062992125984,0.0,0.0,0.0,0.0,0.031496062992125984,0.0,0.031496062992125984,0.0,0.0,0.0,0.031496062992125984,0.031496062992125984,0.031496062992125984,0.031496062992125984,0.0,0.023622047244094488,0.031496062992125984,0.0,0.031496062992125984,0.0,0.031496062992125984,0.0,0.031496062992125984
S8_D15 hbo,0.0,0.0,0.0,0.0,0.0,0.0,0.0,0.0,0.0,0.0,0.0,0.0,0.0,0.0,0.0,0.0,0.0,0.0,0.0,0.0,0.0,0.0,0.0,0.0,0.0,0.0,0.0,0.0,0.0,0.0,0.0,0.0,0.0,0.0,0.0,0.0,0.0,0.0,0.0,0.0,0.0,0.0,0.0,0.0,0.0,0.0,0.0,0.0,0.0,0.0,0.0,0.0
S9_D2 hbo,0.03383458646616541,0.0,0.03007518796992481,0.03383458646616541,0.03383458646616541,0.0,0.03007518796992481,0.0,0.022556390977443608,0.03383458646616541,0.03383458646616541,0.03007518796992481,0.03383458646616541,0.011278195488721804,0.015037593984962405,0.03383458646616541,0.03007518796992481,0.03383458646616541,0.015037593984962405,0.03383458646616541,0.015037593984962405,0.018796992481203006,0.03383458646616541,0.03383458646616541,0.015037593984962405,0.0,0.03007518796992481,0.0,0.03383458646616541,0.0,0.0,0.0,0.0037593984962406013,0.03383458646616541,0.0,0.03383458646616541,0.0,0.0,0.0,0.03383458646616541,0.03383458646616541,0.03383458646616541,0.02631578947368421,0.0,0.022556390977443608,0.03383458646616541,0.0,0.03007518796992481,0.0,0.018796992481203006,0.0,0.02631578947368421
S9_D9 hbo,0.0,0.0,0.0,0.0,0.0,0.0,0.0,0.0,0.0,0.0,0.0,0.0,0.0,0.0,0.0,0.0,0.0,0.0,0.0,0.0,0.0,0.0,0.0,0.0,0.0,0.0,0.0,0.0,0.0,0.0,0.0,0.0,0.0,0.0,0.0,0.0,0.0,0.0,0.0,0.0,0.0,0.0,0.0,0.0,0.0,0.0,0.0,0.0,0.0,0.0,0.0,0.0
S9_D11 hbo,0.03896103896103896,0.015584415584415584,0.03636363636363636,0.023376623376623377,0.02857142857142857,0.0,0.03636363636363636,0.0,0.015584415584415584,0.03896103896103896,0.023376623376623377,0.03636363636363636,0.03896103896103896,0.02077922077922078,0.01038961038961039,0.03896103896103896,0.02077922077922078,0.03896103896103896,0.01038961038961039,0.03896103896103896,0.01038961038961039,0.02857142857142857,0.02857142857142857,0.03896103896103896,0.01038961038961039,0.0,0.02077922077922078,0.0,0.03636363636363636,0.0,0.0,0.0,0.0025974025974025974,0.025974025974025976,0.0,0.03116883116883117,0.0,0.0,0.0,0.02857142857142857,0.03896103896103896,0.03636363636363636,0.02857142857142857,0.0,0.015584415584415584,0.03896103896103896,0.0,0.02077922077922078,0.012987012987012988,0.012987012987012988,0.0,0.02077922077922078
S10_D9 hbo,0.0,0.0,0.0,0.0,0.0,0.0,0.0,0.0,0.0,0.0,0.0,0.0,0.0,0.0,0.0,0.0,0.0,0.0,0.0,0.0,0.0,0.0,0.0,0.0,0.0,0.0,0.0,0.0,0.0,0.0,0.0,0.0,0.0,0.0,0.0,0.0,0.0,0.0,0.0,0.0,0.0,0.0,0.0,0.0,0.0,0.0,0.0,0.0,0.0,0.0,0.0,0.0
S10_D10 hbo,0.0,0.0,0.0,0.0,0.0,0.0,0.0,0.0,0.0,0.0,0.0,0.0,0.0,0.0,0.0,0.0,0.0,0.0,0.0,0.0,0.0,0.0,0.0,0.0,0.0,0.0,0.0,0.0,0.0,0.0,0.0,0.0,0.0,0.0,0.0,0.0,0.0,0.0,0.0,0.0,0.0,0.0,0.0,0.0,0.0,0.0,0.0,0.0,0.0,0.0,0.0,0.0
S10_D12 hbo,0.0,0.0,0.0,0.0,0.0,0.0,0.0,0.0,0.0,0.0,0.0,0.0,0.0,0.0,0.0,0.0,0.0,0.0,0.0,0.0,0.0,0.0,0.0,0.0,0.0,0.0,0.0,0.0,0.0,0.0,0.0,0.0,0.0,0.0,0.0,0.0,0.0,0.0,0.0,0.0,0.0,0.0,0.0,0.0,0.0,0.0,0.0,0.0,0.0,0.0,0.0,0.0
S11_D9 hbo,0.0392156862745098,0.0,0.0196078431372549,0.0392156862745098,0.0392156862745098,0.0,0.0196078431372549,0.0,0.0,0.0392156862745098,0.0392156862745098,0.0196078431372549,0.0392156862745098,0.0,0.0,0.0392156862745098,0.0392156862745098,0.0392156862745098,0.0392156862745098,0.0392156862745098,0.0196078431372549,0.0,0.0392156862745098,0.0392156862745098,0.0,0.0,0.0392156862745098,0.0,0.0392156862745098,0.0,0.0,0.0,0.0196078431372549,0.0392156862745098,0.0,0.0392156862745098,0.0,0.0,0.0,0.0392156862745098,0.0392156862745098,0.0392156862745098,0.0,0.0,0.0392156862745098,0.0392156862745098,0.0,0.0392156862745098,0.0,0.0,0.0,0.0
S11_D11 hbo,0.03514376996805112,0.006389776357827476,0.03194888178913738,0.02875399361022364,0.03514376996805112,0.0,0.03194888178913738,0.0,0.019169329073482427,0.03514376996805112,0.02875399361022364,0.03194888178913738,0.03514376996805112,0.01597444089456869,0.012779552715654952,0.03514376996805112,0.025559105431309903,0.03514376996805112,0.012779552715654952,0.03514376996805112,0.012779552715654952,0.022364217252396165,0.03514376996805112,0.03514376996805112,0.012779552715654952,0.0,0.025559105431309903,0.0,0.03514376996805112,0.0,0.0,0.0,0.003194888178913738,0.03194888178913738,0.0,0.03514376996805112,0.0,0.0,0.0,0.03514376996805112,0.03514376996805112,0.03514376996805112,0.02875399361022364,0.0,0.019169329073482427,0.03514376996805112,0.0,0.025559105431309903,0.003194888178913738,0.01597444089456869,0.0,0.025559105431309903
S11_D12 hbo,0.0,0.0,0.0,0.0,0.0,0.0,0.0,0.0,0.0,0.0,0.0,0.0,0.0,0.0,0.0,0.0,0.0,0.0,0.0,0.0,0.0,0.0,0.0,0.0,0.0,0.0,0.0,0.0,0.0,0.0,0.0,0.0,0.0,0.0,0.0,0.0,0.0,0.0,0.0,0.0,0.0,0.0,0.0,0.0,0.0,0.0,0.0,0.0,0.0,0.0,0.0,0.0
S11_D13 hbo,0.036931818181818184,0.011363636363636364,0.03409090909090909,0.02556818181818182,0.03125,0.0,0.03409090909090909,0.0,0.017045454545454544,0.036931818181818184,0.02556818181818182,0.03409090909090909,0.036931818181818184,0.019886363636363636,0.011363636363636364,0.036931818181818184,0.022727272727272728,0.036931818181818184,0.011363636363636364,0.036931818181818184,0.011363636363636364,0.02556818181818182,0.03125,0.036931818181818184,0.011363636363636364,0.0,0.022727272727272728,0.0,0.036931818181818184,0.0,0.0,0.0,0.002840909090909091,0.028409090909090908,0.0,0.03409090909090909,0.0,0.0,0.0,0.03125,0.036931818181818184,0.036931818181818184,0.03125,0.0,0.017045454545454544,0.036931818181818184,0.0,0.022727272727272728,0.008522727272727272,0.014204545454545454,0.0,0.022727272727272728
S12_D10 hbo,0.0,0.0,0.0,0.0,0.0,0.0,0.0,0.0,0.0,0.0,0.0,0.0,0.0,0.0,0.0,0.0,0.0,0.0,0.0,0.0,0.0,0.0,0.0,0.0,0.0,0.0,0.0,0.0,0.0,0.0,0.0,0.0,0.0,0.0,0.0,0.0,0.0,0.0,0.0,0.0,0.0,0.0,0.0,0.0,0.0,0.0,0.0,0.0,0.0,0.0,0.0,0.0
S12_D12 hbo,0.0,0.0,0.0,0.0,0.0,0.0,0.0,0.0,0.0,0.0,0.0,0.0,0.0,0.0,0.0,0.0,0.0,0.0,0.0,0.0,0.0,0.0,0.0,0.0,0.0,0.0,0.0,0.0,0.0,0.0,0.0,0.0,0.0,0.0,0.0,0.0,0.0,0.0,0.0,0.0,0.0,0.0,0.0,0.0,0.0,0.0,0.0,0.0,0.0,0.0,0.0,0.0
S12_D14 hbo,0.0,0.0,0.0,0.0,0.0,0.0,0.0,0.0,0.0,0.0,0.0,0.0,0.0,0.0,0.0,0.0,0.0,0.0,0.0,0.0,0.0,0.0,0.0,0.0,0.0,0.0,0.0,0.0,0.0,0.0,0.0,0.0,0.0,0.0,0.0,0.0,0.0,0.0,0.0,0.0,0.0,0.0,0.0,0.0,0.0,0.0,0.0,0.0,0.0,0.0,0.0,0.0
S13_D6 hbo,0.03559870550161812,0.009708737864077669,0.03559870550161812,0.025889967637540454,0.032362459546925564,0.0,0.03559870550161812,0.0,0.019417475728155338,0.03559870550161812,0.025889967637540454,0.03559870550161812,0.03559870550161812,0.019417475728155338,0.012944983818770227,0.03559870550161812,0.022653721682847898,0.03559870550161812,0.009708737864077669,0.03559870550161812,0.012944983818770227,0.025889967637540454,0.032362459546925564,0.03559870550161812,0.012944983818770227,0.0,0.022653721682847898,0.0,0.03559870550161812,0.0,0.0,0.0,0.0,0.02912621359223301,0.0,0.03559870550161812,0.0,0.0,0.0,0.032362459546925564,0.03559870550161812,0.03559870550161812,0.032362459546925564,0.0,0.016181229773462782,0.03559870550161812,0.0,0.022653721682847898,0.006472491909385114,0.016181229773462782,0.0,0.025889967637540454
S13_D11 hbo,0.04326923076923077,0.02403846153846154,0.036057692307692304,0.021634615384615384,0.026442307692307692,0.0,0.038461538461538464,0.0,0.014423076923076924,0.036057692307692304,0.021634615384615384,0.036057692307692304,0.040865384615384616,0.019230769230769232,0.009615384615384616,0.04326923076923077,0.019230769230769232,0.038461538461538464,0.009615384615384616,0.038461538461538464,0.009615384615384616,0.03125,0.026442307692307692,0.040865384615384616,0.009615384615384616,0.0,0.019230769230769232,0.0,0.03365384615384615,0.0,0.0,0.0,0.002403846153846154,0.02403846153846154,0.0,0.028846153846153848,0.0,0.0,0.0,0.026442307692307692,0.04326923076923077,0.03365384615384615,0.026442307692307692,0.0,0.014423076923076924,0.04326923076923077,0.0,0.019230769230769232,0.019230769230769232,0.01201923076923077,0.0,0.019230769230769232
S13_D13 hbo,0.03896103896103896,0.015584415584415584,0.03636363636363636,0.023376623376623377,0.02857142857142857,0.0,0.03636363636363636,0.0,0.015584415584415584,0.03896103896103896,0.023376623376623377,0.03636363636363636,0.03896103896103896,0.02077922077922078,0.01038961038961039,0.03896103896103896,0.02077922077922078,0.03896103896103896,0.01038961038961039,0.03896103896103896,0.01038961038961039,0.02857142857142857,0.02857142857142857,0.03896103896103896,0.01038961038961039,0.0,0.02077922077922078,0.0,0.03636363636363636,0.0,0.0,0.0,0.0025974025974025974,0.025974025974025976,0.0,0.03116883116883117,0.0,0.0,0.0,0.02857142857142857,0.03896103896103896,0.03636363636363636,0.02857142857142857,0.0,0.015584415584415584,0.03896103896103896,0.0,0.02077922077922078,0.012987012987012988,0.012987012987012988,0.0,0.02077922077922078
S13_D15 hbo,0.03832752613240418,0.017421602787456445,0.03832752613240418,0.020905923344947737,0.027874564459930314,0.0,0.03832752613240418,0.0,0.017421602787456445,0.03832752613240418,0.020905923344947737,0.03832752613240418,0.03832752613240418,0.027874564459930314,0.013937282229965157,0.03832752613240418,0.017421602787456445,0.03832752613240418,0.003484320557491289,0.03832752613240418,0.006968641114982578,0.03484320557491289,0.027874564459930314,0.03832752613240418,0.010452961672473868,0.0,0.017421602787456445,0.0,0.03832752613240418,0.0,0.0,0.0,0.0,0.024390243902439025,0.0,0.0313588850174216,0.0,0.0,0.0,0.027874564459930314,0.03832752613240418,0.03832752613240418,0.03484320557491289,0.0,0.010452961672473868,0.03832752613240418,0.0,0.017421602787456445,0.013937282229965157,0.013937282229965157,0.0,0.024390243902439025
S14_D12 hbo,0.0,0.0,0.0,0.0,0.0,0.0,0.0,0.0,0.0,0.0,0.0,0.0,0.0,0.0,0.0,0.0,0.0,0.0,0.0,0.0,0.0,0.0,0.0,0.0,0.0,0.0,0.0,0.0,0.0,0.0,0.0,0.0,0.0,0.0,0.0,0.0,0.0,0.0,0.0,0.0,0.0,0.0,0.0,0.0,0.0,0.0,0.0,0.0,0.0,0.0,0.0,0.0
S14_D13 hbo,0.03333333333333333,0.0,0.02857142857142857,0.03333333333333333,0.03333333333333333,0.0,0.02857142857142857,0.0,0.023809523809523808,0.03333333333333333,0.03333333333333333,0.02857142857142857,0.03333333333333333,0.004761904761904762,0.009523809523809525,0.03333333333333333,0.03333333333333333,0.03333333333333333,0.01904761904761905,0.03333333333333333,0.01904761904761905,0.014285714285714285,0.03333333333333333,0.03333333333333333,0.01904761904761905,0.0,0.03333333333333333,0.0,0.03333333333333333,0.0,0.0,0.0,0.004761904761904762,0.03333333333333333,0.0,0.03333333333333333,0.0,0.0,0.0,0.03333333333333333,0.03333333333333333,0.03333333333333333,0.023809523809523808,0.0,0.02857142857142857,0.03333333333333333,0.0,0.03333333333333333,0.0,0.023809523809523808,0.0,0.023809523809523808
S14_D14 hbo,0.04326923076923077,0.02403846153846154,0.036057692307692304,0.021634615384615384,0.026442307692307692,0.0,0.038461538461538464,0.0,0.014423076923076924,0.036057692307692304,0.021634615384615384,0.036057692307692304,0.040865384615384616,0.019230769230769232,0.009615384615384616,0.04326923076923077,0.019230769230769232,0.038461538461538464,0.009615384615384616,0.038461538461538464,0.009615384615384616,0.03125,0.026442307692307692,0.040865384615384616,0.009615384615384616,0.0,0.019230769230769232,0.0,0.03365384615384615,0.0,0.0,0.0,0.002403846153846154,0.02403846153846154,0.0,0.028846153846153848,0.0,0.0,0.0,0.026442307692307692,0.04326923076923077,0.03365384615384615,0.026442307692307692,0.0,0.014423076923076924,0.04326923076923077,0.0,0.019230769230769232,0.019230769230769232,0.01201923076923077,0.0,0.019230769230769232
S14_D16 hbo,0.0,0.0,0.0,0.0,0.0,0.0,0.0,0.0,0.0,0.0,0.0,0.0,0.0,0.0,0.0,0.0,0.0,0.0,0.0,0.0,0.0,0.0,0.0,0.0,0.0,0.0,0.0,0.0,0.0,0.0,0.0,0.0,0.0,0.0,0.0,0.0,0.0,0.0,0.0,0.0,0.0,0.0,0.0,0.0,0.0,0.0,0.0,0.0,0.0,0.0,0.0,0.0
S15_D13 hbo,0.03383458646616541,0.0,0.03007518796992481,0.03383458646616541,0.03383458646616541,0.0,0.03007518796992481,0.0,0.022556390977443608,0.03383458646616541,0.03383458646616541,0.03007518796992481,0.03383458646616541,0.011278195488721804,0.015037593984962405,0.03383458646616541,0.03007518796992481,0.03383458646616541,0.015037593984962405,0.03383458646616541,0.015037593984962405,0.018796992481203006,0.03383458646616541,0.03383458646616541,0.015037593984962405,0.0,0.03007518796992481,0.0,0.03383458646616541,0.0,0.0,0.0,0.0037593984962406013,0.03383458646616541,0.0,0.03383458646616541,0.0,0.0,0.0,0.03383458646616541,0.03383458646616541,0.03383458646616541,0.02631578947368421,0.0,0.022556390977443608,0.03383458646616541,0.0,0.03007518796992481,0.0,0.018796992481203006,0.0,0.02631578947368421
S15_D15 hbo,0.06796116504854369,0.07766990291262135,0.04854368932038835,0.0,0.0,0.0,0.05825242718446602,0.0,0.0,0.038834951456310676,0.0,0.04854368932038835,0.05825242718446602,0.02912621359223301,0.0,0.06796116504854369,0.0,0.04854368932038835,0.0,0.04854368932038835,0.0,0.05825242718446602,0.0,0.05825242718446602,0.0,0.0,0.0,0.0,0.02912621359223301,0.0,0.0,0.0,0.0,0.0,0.0,0.009708737864077669,0.0,0.0,0.0,0.0,0.06796116504854369,0.02912621359223301,0.019417475728155338,0.0,0.0,0.06796116504854369,0.0,0.0,0.06796116504854369,0.0,0.0,0.0
S15_D16 hbo,0.03184713375796178,0.0,0.03184713375796178,0.03184713375796178,0.03184713375796178,0.0,0.03184713375796178,0.0,0.03184713375796178,0.03184713375796178,0.03184713375796178,0.03184713375796178,0.03184713375796178,0.012738853503184714,0.01910828025477707,0.03184713375796178,0.03184713375796178,0.03184713375796178,0.006369426751592357,0.03184713375796178,0.012738853503184714,0.025477707006369428,0.03184713375796178,0.03184713375796178,0.01910828025477707,0.0,0.03184713375796178,0.0,0.03184713375796178,0.0,0.0,0.0,0.0,0.03184713375796178,0.0,0.03184713375796178,0.0,0.0,0.0,0.03184713375796178,0.03184713375796178,0.03184713375796178,0.03184713375796178,0.0,0.01910828025477707,0.03184713375796178,0.0,0.03184713375796178,0.0,0.025477707006369428,0.0,0.03184713375796178
S16_D14 hbo,0.0,0.0,0.0,0.0,0.0,0.0,0.0,0.0,0.0,0.0,0.0,0.0,0.0,0.0,0.0,0.0,0.0,0.0,0.0,0.0,0.0,0.0,0.0,0.0,0.0,0.0,0.0,0.0,0.0,0.0,0.0,0.0,0.0,0.0,0.0,0.0,0.0,0.0,0.0,0.0,0.0,0.0,0.0,0.0,0.0,0.0,0.0,0.0,0.0,0.0,0.0,0.0
S16_D16 hbo,0.034782608695652174,0.008695652173913044,0.034782608695652174,0.02608695652173913,0.034782608695652174,0.0,0.034782608695652174,0.0,0.021739130434782608,0.034782608695652174,0.02608695652173913,0.034782608695652174,0.034782608695652174,0.021739130434782608,0.017391304347826087,0.034782608695652174,0.021739130434782608,0.034782608695652174,0.004347826086956522,0.034782608695652174,0.008695652173913044,0.030434782608695653,0.034782608695652174,0.034782608695652174,0.013043478260869565,0.0,0.021739130434782608,0.0,0.034782608695652174,0.0,0.0,0.0,0.0,0.030434782608695653,0.0,0.034782608695652174,0.0,0.0,0.0,0.034782608695652174,0.034782608695652174,0.034782608695652174,0.034782608695652174,0.0,0.013043478260869565,0.034782608695652174,0.0,0.021739130434782608,0.004347826086956522,0.017391304347826087,0.0,0.030434782608695653
