,S1_D1 hbo,S1_D3 hbo,S2_D1 hbo,S2_D2 hbo,S2_D4 hbo,S3_D1 hbo,S3_D3 hbo,S3_D4 hbo,S3_D5 hbo,S4_D2 hbo,S4_D4 hbo,S4_D6 hbo,S4_D11 hbo,S5_D3 hbo,S5_D5 hbo,S5_D7 hbo,S6_D4 hbo,S6_D5 hbo,S6_D6 hbo,S6_D8 hbo,S7_D5 hbo,S7_D7 hbo,S7_D8 hbo,S8_D6 hbo,S8_D8 hbo,S8_D15 hbo,S9_D2 hbo,S9_D9 hbo,S9_D11 hbo,S10_D9 hbo,S10_D10 hbo,S10_D12 hbo,S11_D9 hbo,S11_D11 hbo,S11_D12 hbo,S11_D13 hbo,S12_D10 hbo,S12_D12 hbo,S12_D14 hbo,S13_D6 hbo,S13_D11 hbo,S13_D13 hbo,S13_D15 hbo,S14_D12 hbo,S14_D13 hbo,S14_D14 hbo,S14_D16 hbo,S15_D13 hbo,S15_D15 hbo,S15_D16 hbo,S16_D14 hbo,S16_D16 hbo
S1_D1 hbo,0.0,0.0,0.0,0.0,0.0,0.0,0.0,0.0,0.0,0.0,0.0,0.0,0.0,0.0,0.0,0.0,0.0,0.0,0.0,0.0,0.0,0.0,0.0,0.0,0.0,0.0,0.0,0.0,0.0,0.0,0.0,0.0,0.0,0.0,0.0,0.0,0.0,0.0,0.0,0.0,0.0,0.0,0.0,0.0,0.0,0.0,0.0,0.0,0.0,0.0,0.0,0.0
S1_D3 hbo,0.0,0.0,0.0,0.0,0.0,0.0,0.0,0.0,0.0,0.0,0.0,0.0,0.0,0.0,0.0,0.0,0.0,0.0,0.0,0.0,0.0,0.0,0.0,0.0,0.0,0.0,0.0,0.0,0.0,0.0,0.0,0.0,0.0,0.0,0.0,0.0,0.0,0.0,0.0,0.0,0.0,0.0,0.0,0.0,0.0,0.0,0.0,0.0,0.0,0.0,0.0,0.0
S2_D1 hbo,0.0,0.0,0.04752851711026616,0.02091254752851711,0.028517110266159697,0.0019011406844106464,0.0,0.0,0.028517110266159697,0.0,0.017110266159695818,0.04182509505703422,0.005703422053231939,0.0019011406844106464,0.02091254752851711,0.015209125475285171,0.02091254752851711,0.011406844106463879,0.009505703422053232,0.03802281368821293,0.028517110266159697,0.024714828897338403,0.026615969581749048,0.049429657794676805,0.043726235741444866,0.049429657794676805,0.011406844106463879,0.019011406844106463,0.030418250950570342,0.0076045627376425855,0.0,0.009505703422053232,0.0,0.030418250950570342,0.019011406844106463,0.022813688212927757,0.0,0.0,0.0,0.034220532319391636,0.03802281368821293,0.024714828897338403,0.045627376425855515,0.0,0.02091254752851711,0.03231939163498099,0.03802281368821293,0.009505703422053232,0.0,0.03231939163498099,0.04182509505703422,0.0
S2_D2 hbo,0.0,0.0,0.05806451612903226,0.16129032258064516,0.025806451612903226,0.0,0.0,0.0,0.0,0.0,0.0,0.03870967741935484,0.0,0.0,0.0,0.0,0.0064516129032258064,0.0,0.0,0.025806451612903226,0.0,0.0,0.0,0.07096774193548387,0.04516129032258064,0.07096774193548387,0.14193548387096774,0.13548387096774195,0.0,0.0,0.0,0.0,0.0,0.0,0.0,0.0,0.0,0.0,0.0,0.012903225806451613,0.025806451612903226,0.0,0.06451612903225806,0.0,0.0,0.04516129032258064,0.025806451612903226,0.0,0.0,0.0064516129032258064,0.03870967741935484,0.0
S2_D4 hbo,0.0,0.0,0.04823151125401929,0.01929260450160772,0.04501607717041801,0.0,0.0,0.0,0.028938906752411574,0.0,0.022508038585209004,0.04823151125401929,0.0,0.0,0.01607717041800643,0.006430868167202572,0.03536977491961415,0.0,0.0,0.04501607717041801,0.028938906752411574,0.022508038585209004,0.02572347266881029,0.04823151125401929,0.04823151125401929,0.04823151125401929,0.003215434083601286,0.01607717041800643,0.03215434083601286,0.0,0.0,0.0,0.0,0.03215434083601286,0.012861736334405145,0.01929260450160772,0.0,0.0,0.0,0.03858520900321544,0.04501607717041801,0.022508038585209004,0.04823151125401929,0.0,0.01607717041800643,0.04823151125401929,0.04501607717041801,0.0,0.0,0.03536977491961415,0.04823151125401929,0.0
S3_D1 hbo,0.0,0.0,0.02142857142857143,0.0,0.0,0.02857142857142857,0.0,0.0,0.02857142857142857,0.0,0.0,0.014285714285714285,0.03571428571428571,0.02857142857142857,0.03571428571428571,0.03571428571428571,0.0,0.03571428571428571,0.03571428571428571,0.03571428571428571,0.03571428571428571,0.03571428571428571,0.03571428571428571,0.02142857142857143,0.03571428571428571,0.02857142857142857,0.0,0.0,0.02857142857142857,0.03571428571428571,0.0,0.03571428571428571,0.0,0.03571428571428571,0.03571428571428571,0.03571428571428571,0.0,0.0,0.0,0.03571428571428571,0.02142857142857143,0.03571428571428571,0.0,0.0,0.03571428571428571,0.0,0.02857142857142857,0.03571428571428571,0.0,0.03571428571428571,0.03571428571428571,0.0
S3_D3 hbo,0.0,0.0,0.0,0.0,0.0,0.0,0.0,0.0,0.0,0.0,0.0,0.0,0.0,0.0,0.0,0.0,0.0,0.0,0.0,0.0,0.0,0.0,0.0,0.0,0.0,0.0,0.0,0.0,0.0,0.0,0.0,0.0,0.0,0.0,0.0,0.0,0.0,0.0,0.0,0.0,0.0,0.0,0.0,0.0,0.0,0.0,0.0,0.0,0.0,0.0,0.0,0.0
S3_D4 hbo,0.0,0.0,0.0,0.0,0.0,0.0,0.0,0.0,0.0,0.0,0.0,0.0,0.0,0.0,0.0,0.0,0.0,0.0,0.0,0.0,0.0,0.0,0.0,0.0,0.0,0.0,0.0,0.0,0.0,0.0,0.0,0.0,0.0,0.0,0.0,0.0,0.0,0.0,0.0,0.0,0.0,0.0,0.0,0.0,0.0,0.0,0.0,0.0,0.0,0.0,0.0,0.0
S3_D5 hbo,0.0,0.0,0.038202247191011236,0.0022471910112359553,0.024719101123595506,0.0044943820224719105,0.0,0.0,0.035955056179775284,0.0,0.020224719101123594,0.035955056179775284,0.008988764044943821,0.0044943820224719105,0.02696629213483146,0.020224719101123594,0.02247191011235955,0.015730337078651686,0.01348314606741573,0.038202247191011236,0.035955056179775284,0.03146067415730337,0.033707865168539325,0.038202247191011236,0.038202247191011236,0.038202247191011236,0.0,0.0,0.038202247191011236,0.011235955056179775,0.0,0.01348314606741573,0.0,0.038202247191011236,0.024719101123595506,0.029213483146067417,0.0,0.0,0.0,0.038202247191011236,0.038202247191011236,0.03146067415730337,0.03146067415730337,0.0,0.02696629213483146,0.02247191011235955,0.038202247191011236,0.01348314606741573,0.0,0.038202247191011236,0.038202247191011236,0.0
S4_D2 hbo,0.0,0.0,0.0,0.0,0.0,0.0,0.0,0.0,0.0,0.0,0.0,0.0,0.0,0.0,0.0,0.0,0.0,0.0,0.0,0.0,0.0,0.0,0.0,0.0,0.0,0.0,0.0,0.0,0.0,0.0,0.0,0.0,0.0,0.0,0.0,0.0,0.0,0.0,0.0,0.0,0.0,0.0,0.0,0.0,0.0,0.0,0.0,0.0,0.0,0.0,0.0,0.0
S4_D4 hbo,0.0,0.0,0.0391304347826087,0.0,0.0391304347826087,0.0,0.0,0.0,0.0391304347826087,0.0,0.034782608695652174,0.0391304347826087,0.0,0.0,0.02608695652173913,0.013043478260869565,0.034782608695652174,0.004347826086956522,0.0,0.0391304347826087,0.0391304347826087,0.034782608695652174,0.0391304347826087,0.0391304347826087,0.0391304347826087,0.0391304347826087,0.0,0.0,0.0391304347826087,0.0,0.0,0.0,0.0,0.0391304347826087,0.021739130434782608,0.030434782608695653,0.0,0.0,0.0,0.0391304347826087,0.0391304347826087,0.034782608695652174,0.0391304347826087,0.0,0.02608695652173913,0.034782608695652174,0.0391304347826087,0.0,0.0,0.0391304347826087,0.0391304347826087,0.0
S4_D6 hbo,0.0,0.0,0.04631578947368421,0.016842105263157894,0.031578947368421054,0.0,0.0,0.0,0.029473684210526315,0.0,0.018947368421052633,0.04421052631578947,0.004210526315789474,0.0,0.021052631578947368,0.014736842105263158,0.023157894736842106,0.010526315789473684,0.008421052631578947,0.04,0.029473684210526315,0.02526315789473684,0.02736842105263158,0.04631578947368421,0.04631578947368421,0.04631578947368421,0.00631578947368421,0.014736842105263158,0.031578947368421054,0.00631578947368421,0.0,0.008421052631578947,0.0,0.031578947368421054,0.018947368421052633,0.023157894736842106,0.0,0.0,0.0,0.035789473684210524,0.04,0.02526315789473684,0.04421052631578947,0.0,0.021052631578947368,0.035789473684210524,0.04,0.008421052631578947,0.0,0.03368421052631579,0.04421052631578947,0.0
S4_D11 hbo,0.0,0.0,0.02512562814070352,0.0,0.0,0.020100502512562814,0.0,0.0,0.03015075376884422,0.0,0.0,0.020100502512562814,0.03015075376884422,0.020100502512562814,0.035175879396984924,0.035175879396984924,0.0,0.035175879396984924,0.035175879396984924,0.035175879396984924,0.035175879396984924,0.035175879396984924,0.035175879396984924,0.02512562814070352,0.035175879396984924,0.03015075376884422,0.0,0.0,0.03015075376884422,0.035175879396984924,0.0,0.035175879396984924,0.0,0.035175879396984924,0.035175879396984924,0.035175879396984924,0.0,0.0,0.0,0.035175879396984924,0.02512562814070352,0.035175879396984924,0.010050251256281407,0.0,0.035175879396984924,0.0,0.03015075376884422,0.035175879396984924,0.0,0.035175879396984924,0.035175879396984924,0.0
S5_D3 hbo,0.0,0.0,0.02142857142857143,0.0,0.0,0.02857142857142857,0.0,0.0,0.02857142857142857,0.0,0.0,0.014285714285714285,0.03571428571428571,0.02857142857142857,0.03571428571428571,0.03571428571428571,0.0,0.03571428571428571,0.03571428571428571,0.03571428571428571,0.03571428571428571,0.03571428571428571,0.03571428571428571,0.02142857142857143,0.03571428571428571,0.02857142857142857,0.0,0.0,0.02857142857142857,0.03571428571428571,0.0,0.03571428571428571,0.0,0.03571428571428571,0.03571428571428571,0.03571428571428571,0.0,0.0,0.0,0.03571428571428571,0.02142857142857143,0.03571428571428571,0.0,0.0,0.03571428571428571,0.0,0.02857142857142857,0.03571428571428571,0.0,0.03571428571428571,0.03571428571428571,0.0
S5_D5 hbo,0.0,0.0,0.03132530120481928,0.0,0.016867469879518072,0.00963855421686747,0.0,0.0,0.033734939759036145,0.0,0.01927710843373494,0.02891566265060241,0.014457831325301205,0.00963855421686747,0.033734939759036145,0.02650602409638554,0.014457831325301205,0.021686746987951807,0.01927710843373494,0.03614457831325301,0.03614457831325301,0.03614457831325301,0.03614457831325301,0.03132530120481928,0.03614457831325301,0.033734939759036145,0.0,0.0,0.033734939759036145,0.016867469879518072,0.0,0.01927710843373494,0.0,0.03614457831325301,0.03132530120481928,0.03614457831325301,0.0,0.0,0.0,0.03614457831325301,0.03132530120481928,0.03614457831325301,0.024096385542168676,0.0,0.033734939759036145,0.014457831325301205,0.033734939759036145,0.01927710843373494,0.0,0.03614457831325301,0.03614457831325301,0.0
S5_D7 hbo,0.0,0.0,0.029585798816568046,0.0,0.011834319526627219,0.011834319526627219,0.0,0.0,0.03254437869822485,0.0,0.014792899408284023,0.026627218934911243,0.01775147928994083,0.011834319526627219,0.03550295857988166,0.03254437869822485,0.008875739644970414,0.026627218934911243,0.023668639053254437,0.03550295857988166,0.03550295857988166,0.03550295857988166,0.03550295857988166,0.029585798816568046,0.03550295857988166,0.03254437869822485,0.0,0.0,0.03254437869822485,0.020710059171597635,0.0,0.023668639053254437,0.0,0.03550295857988166,0.03550295857988166,0.03550295857988166,0.0,0.0,0.0,0.03550295857988166,0.029585798816568046,0.03550295857988166,0.020710059171597635,0.0,0.03550295857988166,0.008875739644970414,0.03254437869822485,0.023668639053254437,0.0,0.03550295857988166,0.03550295857988166,0.0
S6_D4 hbo,0.0,0.0,0.045081967213114756,0.012295081967213115,0.045081967213114756,0.0,0.0,0.0,0.03278688524590164,0.0,0.02459016393442623,0.045081967213114756,0.0,0.0,0.01639344262295082,0.004098360655737705,0.040983606557377046,0.0,0.0,0.045081967213114756,0.03278688524590164,0.02459016393442623,0.028688524590163935,0.045081967213114756,0.045081967213114756,0.045081967213114756,0.0,0.00819672131147541,0.036885245901639344,0.0,0.0,0.0,0.0,0.036885245901639344,0.012295081967213115,0.020491803278688523,0.0,0.0,0.0,0.045081967213114756,0.045081967213114756,0.02459016393442623,0.045081967213114756,0.0,0.01639344262295082,0.045081967213114756,0.045081967213114756,0.0,0.0,0.040983606557377046,0.045081967213114756,0.0
S6_D5 hbo,0.0,0.0,0.028268551236749116,0.0,0.007067137809187279,0.014134275618374558,0.0,0.0,0.03180212014134275,0.0,0.01060070671378092,0.024734982332155476,0.02120141342756184,0.014134275618374558,0.0353356890459364,0.0353356890459364,0.0035335689045936395,0.03180212014134275,0.028268551236749116,0.0353356890459364,0.0353356890459364,0.0353356890459364,0.0353356890459364,0.028268551236749116,0.0353356890459364,0.03180212014134275,0.0,0.0,0.03180212014134275,0.024734982332155476,0.0,0.028268551236749116,0.0,0.0353356890459364,0.0353356890459364,0.0353356890459364,0.0,0.0,0.0,0.0353356890459364,0.028268551236749116,0.0353356890459364,0.0176678445229682,0.0,0.0353356890459364,0.0035335689045936395,0.03180212014134275,0.028268551236749116,0.0,0.0353356890459364,0.0353356890459364,0.0
S6_D6 hbo,0.0,0.0,0.027450980392156862,0.0,0.00392156862745098,0.01568627450980392,0.0,0.0,0.03137254901960784,0.0,0.00784313725490196,0.023529411764705882,0.023529411764705882,0.01568627450980392,0.03529411764705882,0.03529411764705882,0.0,0.03529411764705882,0.03137254901960784,0.03529411764705882,0.03529411764705882,0.03529411764705882,0.03529411764705882,0.027450980392156862,0.03529411764705882,0.03137254901960784,0.0,0.0,0.03137254901960784,0.027450980392156862,0.0,0.03137254901960784,0.0,0.03529411764705882,0.03529411764705882,0.03529411764705882,0.0,0.0,0.0,0.03529411764705882,0.027450980392156862,0.03529411764705882,0.01568627450980392,0.0,0.03529411764705882,0.0,0.03137254901960784,0.03137254901960784,0.0,0.03529411764705882,0.03529411764705882,0.0
S6_D8 hbo,0.0,0.0,0.038869257950530034,0.01060070671378092,0.026501766784452298,0.007067137809187279,0.0,0.0,0.030035335689045935,0.0,0.015901060070671377,0.037102473498233215,0.01060070671378092,0.007067137809187279,0.024734982332155476,0.019434628975265017,0.019434628975265017,0.015901060070671377,0.014134275618374558,0.04063604240282685,0.03180212014134275,0.028268551236749116,0.030035335689045935,0.038869257950530034,0.04240282685512368,0.04063604240282685,0.0017667844522968198,0.0088339222614841,0.03180212014134275,0.012367491166077738,0.0,0.014134275618374558,0.0,0.03356890459363958,0.022968197879858657,0.026501766784452298,0.0,0.0,0.0,0.037102473498233215,0.037102473498233215,0.028268551236749116,0.03356890459363958,0.0,0.024734982332155476,0.026501766784452298,0.038869257950530034,0.014134275618374558,0.0,0.0353356890459364,0.04240282685512368,0.0
S7_D5 hbo,0.0,0.0,0.03434343434343434,0.00202020202020202,0.022222222222222223,0.00808080808080808,0.0,0.0,0.03434343434343434,0.0,0.01818181818181818,0.03232323232323232,0.012121212121212121,0.00808080808080808,0.028282828282828285,0.022222222222222223,0.020202020202020204,0.01818181818181818,0.01616161616161616,0.03838383838383838,0.03636363636363636,0.03232323232323232,0.03434343434343434,0.03434343434343434,0.03838383838383838,0.03636363636363636,0.0,0.0,0.03636363636363636,0.014141414141414142,0.0,0.01616161616161616,0.0,0.03838383838383838,0.026262626262626262,0.030303030303030304,0.0,0.0,0.0,0.03838383838383838,0.03434343434343434,0.03232323232323232,0.028282828282828285,0.0,0.028282828282828285,0.020202020202020204,0.03636363636363636,0.01616161616161616,0.0,0.03838383838383838,0.03838383838383838,0.0
S7_D7 hbo,0.0,0.0,0.03275109170305677,0.0,0.019650655021834062,0.008733624454148471,0.0,0.0,0.034934497816593885,0.0,0.019650655021834062,0.03056768558951965,0.013100436681222707,0.008733624454148471,0.03056768558951965,0.024017467248908297,0.017467248908296942,0.019650655021834062,0.017467248908296942,0.03711790393013101,0.03711790393013101,0.034934497816593885,0.03711790393013101,0.03275109170305677,0.03711790393013101,0.034934497816593885,0.0,0.0,0.034934497816593885,0.015283842794759825,0.0,0.017467248908296942,0.0,0.03711790393013101,0.028384279475982533,0.03275109170305677,0.0,0.0,0.0,0.03711790393013101,0.03275109170305677,0.034934497816593885,0.026200873362445413,0.0,0.03056768558951965,0.017467248908296942,0.034934497816593885,0.017467248908296942,0.0,0.03711790393013101,0.03711790393013101,0.0
S7_D8 hbo,0.0,0.0,0.033542976939203356,0.0,0.020964360587002098,0.008385744234800839,0.0,0.0,0.03563941299790356,0.0,0.018867924528301886,0.031446540880503145,0.012578616352201259,0.008385744234800839,0.029350104821802937,0.023060796645702306,0.018867924528301886,0.018867924528301886,0.016771488469601678,0.03773584905660377,0.03773584905660377,0.033542976939203356,0.03563941299790356,0.033542976939203356,0.03773584905660377,0.03563941299790356,0.0,0.0,0.03563941299790356,0.014675052410901468,0.0,0.016771488469601678,0.0,0.03773584905660377,0.027253668763102725,0.031446540880503145,0.0,0.0,0.0,0.03773584905660377,0.033542976939203356,0.033542976939203356,0.027253668763102725,0.0,0.029350104821802937,0.018867924528301886,0.03563941299790356,0.016771488469601678,0.0,0.03773584905660377,0.03773584905660377,0.0
S8_D6 hbo,0.0,0.0,0.04681647940074907,0.024344569288389514,0.028089887640449437,0.0018726591760299626,0.0,0.0,0.028089887640449437,0.0,0.016853932584269662,0.04119850187265917,0.0056179775280898875,0.0018726591760299626,0.020599250936329586,0.0149812734082397,0.020599250936329586,0.011235955056179775,0.009363295880149813,0.03745318352059925,0.028089887640449437,0.024344569288389514,0.026217228464419477,0.05056179775280899,0.04307116104868914,0.05056179775280899,0.0149812734082397,0.02247191011235955,0.0299625468164794,0.00749063670411985,0.0,0.009363295880149813,0.0,0.0299625468164794,0.018726591760299626,0.02247191011235955,0.0,0.0,0.0,0.033707865168539325,0.03745318352059925,0.024344569288389514,0.0449438202247191,0.0,0.020599250936329586,0.031835205992509365,0.03745318352059925,0.009363295880149813,0.0,0.031835205992509365,0.04119850187265917,0.0
S8_D8 hbo,0.0,0.0,0.04215851602023609,0.01517706576728499,0.025295109612141653,0.006745362563237774,0.0,0.0,0.02866779089376054,0.0,0.01517706576728499,0.03709949409780776,0.01011804384485666,0.006745362563237774,0.023608768971332208,0.01854974704890388,0.01854974704890388,0.01517706576728499,0.013490725126475547,0.0387858347386172,0.03035413153456998,0.026981450252951095,0.02866779089376054,0.04215851602023609,0.04384485666104553,0.04384485666104553,0.006745362563237774,0.013490725126475547,0.03035413153456998,0.011804384485666104,0.0,0.013490725126475547,0.0,0.03204047217537943,0.021922428330522766,0.025295109612141653,0.0,0.0,0.0,0.03541315345699832,0.03541315345699832,0.026981450252951095,0.03709949409780776,0.0,0.023608768971332208,0.02866779089376054,0.03709949409780776,0.013490725126475547,0.0,0.03372681281618887,0.04215851602023609,0.0
S8_D15 hbo,0.0,0.0,0.04609929078014184,0.02304964539007092,0.026595744680851064,0.0035460992907801418,0.0,0.0,0.028368794326241134,0.0,0.015957446808510637,0.03900709219858156,0.0070921985815602835,0.0035460992907801418,0.02127659574468085,0.015957446808510637,0.01950354609929078,0.012411347517730497,0.010638297872340425,0.03723404255319149,0.028368794326241134,0.024822695035460994,0.026595744680851064,0.04964539007092199,0.0425531914893617,0.04964539007092199,0.014184397163120567,0.02127659574468085,0.030141843971631204,0.008865248226950355,0.0,0.010638297872340425,0.0,0.030141843971631204,0.01950354609929078,0.02304964539007092,0.0,0.0,0.0,0.03368794326241135,0.03723404255319149,0.024822695035460994,0.0425531914893617,0.0,0.02127659574468085,0.030141843971631204,0.03723404255319149,0.010638297872340425,0.0,0.031914893617021274,0.040780141843971635,0.0
S9_D2 hbo,0.0,0.0,0.047619047619047616,0.23809523809523808,0.0,0.0,0.0,0.0,0.0,0.0,0.0,0.011904761904761904,0.0,0.0,0.0,0.0,0.0,0.0,0.0,0.0,0.0,0.0,0.0,0.07142857142857142,0.023809523809523808,0.07142857142857142,0.25,0.19047619047619047,0.0,0.0,0.0,0.0,0.0,0.0,0.0,0.0,0.0,0.0,0.0,0.0,0.0,0.0,0.05952380952380952,0.0,0.0,0.023809523809523808,0.0,0.0,0.0,0.0,0.011904761904761904,0.0
S9_D9 hbo,0.0,0.0,0.061068702290076333,0.16030534351145037,0.022900763358778626,0.0,0.0,0.0,0.0,0.0,0.0,0.03816793893129771,0.0,0.0,0.0,0.0,0.0,0.0,0.0,0.022900763358778626,0.0,0.0,0.0,0.07633587786259542,0.04580152671755725,0.07633587786259542,0.13740458015267176,0.15267175572519084,0.0,0.0,0.0,0.0,0.0,0.0,0.0,0.0,0.0,0.0,0.0,0.007633587786259542,0.022900763358778626,0.0,0.06870229007633588,0.0,0.0,0.04580152671755725,0.022900763358778626,0.0,0.0,0.0,0.03816793893129771,0.0
S9_D11 hbo,0.0,0.0,0.03896103896103896,0.004329004329004329,0.025974025974025976,0.004329004329004329,0.0,0.0,0.03463203463203463,0.0,0.01948051948051948,0.0367965367965368,0.008658008658008658,0.004329004329004329,0.025974025974025976,0.01948051948051948,0.023809523809523808,0.015151515151515152,0.012987012987012988,0.03896103896103896,0.03463203463203463,0.030303030303030304,0.032467532467532464,0.03896103896103896,0.03896103896103896,0.03896103896103896,0.0,0.0021645021645021645,0.0367965367965368,0.010822510822510822,0.0,0.012987012987012988,0.0,0.0367965367965368,0.023809523809523808,0.02813852813852814,0.0,0.0,0.0,0.03896103896103896,0.03896103896103896,0.030303030303030304,0.032467532467532464,0.0,0.025974025974025976,0.023809523809523808,0.03896103896103896,0.012987012987012988,0.0,0.03896103896103896,0.03896103896103896,0.0
S10_D9 hbo,0.0,0.0,0.02631578947368421,0.0,0.0,0.017543859649122806,0.0,0.0,0.03070175438596491,0.0,0.0043859649122807015,0.021929824561403508,0.02631578947368421,0.017543859649122806,0.03508771929824561,0.03508771929824561,0.0,0.03508771929824561,0.03508771929824561,0.03508771929824561,0.03508771929824561,0.03508771929824561,0.03508771929824561,0.02631578947368421,0.03508771929824561,0.03070175438596491,0.0,0.0,0.03070175438596491,0.03070175438596491,0.0,0.03508771929824561,0.0,0.03508771929824561,0.03508771929824561,0.03508771929824561,0.0,0.0,0.0,0.03508771929824561,0.02631578947368421,0.03508771929824561,0.013157894736842105,0.0,0.03508771929824561,0.0,0.03070175438596491,0.03508771929824561,0.0,0.03508771929824561,0.03508771929824561,0.0
S10_D10 hbo,0.0,0.0,0.0,0.0,0.0,0.0,0.0,0.0,0.0,0.0,0.0,0.0,0.0,0.0,0.0,0.0,0.0,0.0,0.0,0.0,0.0,0.0,0.0,0.0,0.0,0.0,0.0,0.0,0.0,0.0,0.0,0.0,0.0,0.0,0.0,0.0,0.0,0.0,0.0,0.0,0.0,0.0,0.0,0.0,0.0,0.0,0.0,0.0,0.0,0.0,0.0,0.0
S10_D12 hbo,0.0,0.0,0.027450980392156862,0.0,0.00392156862745098,0.01568627450980392,0.0,0.0,0.03137254901960784,0.0,0.00784313725490196,0.023529411764705882,0.023529411764705882,0.01568627450980392,0.03529411764705882,0.03529411764705882,0.0,0.03529411764705882,0.03137254901960784,0.03529411764705882,0.03529411764705882,0.03529411764705882,0.03529411764705882,0.027450980392156862,0.03529411764705882,0.03137254901960784,0.0,0.0,0.03137254901960784,0.027450980392156862,0.0,0.03137254901960784,0.0,0.03529411764705882,0.03529411764705882,0.03529411764705882,0.0,0.0,0.0,0.03529411764705882,0.027450980392156862,0.03529411764705882,0.01568627450980392,0.0,0.03529411764705882,0.0,0.03137254901960784,0.03137254901960784,0.0,0.03529411764705882,0.03529411764705882,0.0
S11_D9 hbo,0.0,0.0,0.0,0.0,0.0,0.0,0.0,0.0,0.0,0.0,0.0,0.0,0.0,0.0,0.0,0.0,0.0,0.0,0.0,0.0,0.0,0.0,0.0,0.0,0.0,0.0,0.0,0.0,0.0,0.0,0.0,0.0,0.0,0.0,0.0,0.0,0.0,0.0,0.0,0.0,0.0,0.0,0.0,0.0,0.0,0.0,0.0,0.0,0.0,0.0,0.0,0.0
S11_D11 hbo,0.0,0.0,0.03680981595092025,0.00408997955010225,0.024539877300613498,0.006134969325153374,0.0,0.0,0.034764826175869123,0.0,0.018404907975460124,0.034764826175869123,0.010224948875255624,0.006134969325153374,0.026584867075664622,0.02044989775051125,0.022494887525562373,0.016359918200409,0.014314928425357873,0.03885480572597137,0.034764826175869123,0.03067484662576687,0.032719836400818,0.03680981595092025,0.03885480572597137,0.03885480572597137,0.0,0.002044989775051125,0.03680981595092025,0.012269938650306749,0.0,0.014314928425357873,0.0,0.03680981595092025,0.024539877300613498,0.028629856850715747,0.0,0.0,0.0,0.03885480572597137,0.03680981595092025,0.03067484662576687,0.03067484662576687,0.0,0.026584867075664622,0.022494887525562373,0.03885480572597137,0.014314928425357873,0.0,0.03885480572597137,0.03885480572597137,0.0
S11_D12 hbo,0.0,0.0,0.030690537084398978,0.0,0.015345268542199489,0.010230179028132993,0.0,0.0,0.03324808184143223,0.0,0.017902813299232736,0.028132992327365727,0.015345268542199489,0.010230179028132993,0.03580562659846547,0.028132992327365727,0.01278772378516624,0.023017902813299233,0.020460358056265986,0.03580562659846547,0.03580562659846547,0.03580562659846547,0.03580562659846547,0.030690537084398978,0.03580562659846547,0.03324808184143223,0.0,0.0,0.03324808184143223,0.017902813299232736,0.0,0.020460358056265986,0.0,0.03580562659846547,0.03324808184143223,0.03580562659846547,0.0,0.0,0.0,0.03580562659846547,0.030690537084398978,0.03580562659846547,0.023017902813299233,0.0,0.03580562659846547,0.01278772378516624,0.03324808184143223,0.020460358056265986,0.0,0.03580562659846547,0.03580562659846547,0.0
S11_D13 hbo,0.0,0.0,0.0319634703196347,0.0,0.0182648401826484,0.0091324200913242,0.0,0.0,0.03424657534246575,0.0,0.02054794520547945,0.02968036529680365,0.0136986301369863,0.0091324200913242,0.0319634703196347,0.02511415525114155,0.01598173515981735,0.02054794520547945,0.0182648401826484,0.0365296803652968,0.0365296803652968,0.0365296803652968,0.0365296803652968,0.0319634703196347,0.0365296803652968,0.03424657534246575,0.0,0.0,0.03424657534246575,0.01598173515981735,0.0,0.0182648401826484,0.0,0.0365296803652968,0.02968036529680365,0.03424657534246575,0.0,0.0,0.0,0.0365296803652968,0.0319634703196347,0.0365296803652968,0.02511415525114155,0.0,0.0319634703196347,0.01598173515981735,0.03424657534246575,0.0182648401826484,0.0,0.0365296803652968,0.0365296803652968,0.0
S12_D10 hbo,0.0,0.0,0.0,0.0,0.0,0.0,0.0,0.0,0.0,0.0,0.0,0.0,0.0,0.0,0.0,0.0,0.0,0.0,0.0,0.0,0.0,0.0,0.0,0.0,0.0,0.0,0.0,0.0,0.0,0.0,0.0,0.0,0.0,0.0,0.0,0.0,0.0,0.0,0.0,0.0,0.0,0.0,0.0,0.0,0.0,0.0,0.0,0.0,0.0,0.0,0.0,0.0
S12_D12 hbo,0.0,0.0,0.0,0.0,0.0,0.0,0.0,0.0,0.0,0.0,0.0,0.0,0.0,0.0,0.0,0.0,0.0,0.0,0.0,0.0,0.0,0.0,0.0,0.0,0.0,0.0,0.0,0.0,0.0,0.0,0.0,0.0,0.0,0.0,0.0,0.0,0.0,0.0,0.0,0.0,0.0,0.0,0.0,0.0,0.0,0.0,0.0,0.0,0.0,0.0,0.0,0.0
S12_D14 hbo,0.0,0.0,0.0,0.0,0.0,0.0,0.0,0.0,0.0,0.0,0.0,0.0,0.0,0.0,0.0,0.0,0.0,0.0,0.0,0.0,0.0,0.0,0.0,0.0,0.0,0.0,0.0,0.0,0.0,0.0,0.0,0.0,0.0,0.0,0.0,0.0,0.0,0.0,0.0,0.0,0.0,0.0,0.0,0.0,0.0,0.0,0.0,0.0,0.0,0.0,0.0,0.0
S13_D6 hbo,0.0,0.0,0.036968576709796676,0.0073937153419593345,0.025878003696857672,0.0073937153419593345,0.0,0.0,0.031423290203327174,0.0,0.0166358595194085,0.03512014787430684,0.011090573012939002,0.0073937153419593345,0.025878003696857672,0.02033271719038817,0.02033271719038817,0.0166358595194085,0.014787430683918669,0.04066543438077634,0.033271719038817,0.029574861367837338,0.031423290203327174,0.036968576709796676,0.04066543438077634,0.038817005545286505,0.0,0.005545286506469501,0.033271719038817,0.012939001848428836,0.0,0.014787430683918669,0.0,0.03512014787430684,0.024029574861367836,0.027726432532347505,0.0,0.0,0.0,0.038817005545286505,0.036968576709796676,0.029574861367837338,0.031423290203327174,0.0,0.025878003696857672,0.024029574861367836,0.038817005545286505,0.014787430683918669,0.0,0.036968576709796676,0.04066543438077634,0.0
S13_D11 hbo,0.0,0.0,0.043209876543209874,0.012345679012345678,0.030864197530864196,0.00205761316872428,0.0,0.0,0.030864197530864196,0.0,0.018518518518518517,0.043209876543209874,0.006172839506172839,0.00205761316872428,0.02263374485596708,0.01646090534979424,0.02263374485596708,0.012345679012345678,0.0102880658436214,0.0411522633744856,0.030864197530864196,0.026748971193415638,0.02880658436213992,0.043209876543209874,0.043209876543209874,0.043209876543209874,0.00205761316872428,0.0102880658436214,0.03292181069958848,0.00823045267489712,0.0,0.0102880658436214,0.0,0.03292181069958848,0.0205761316872428,0.024691358024691357,0.0,0.0,0.0,0.037037037037037035,0.0411522633744856,0.026748971193415638,0.03909465020576132,0.0,0.02263374485596708,0.030864197530864196,0.0411522633744856,0.0102880658436214,0.0,0.03497942386831276,0.043209876543209874,0.0
S13_D13 hbo,0.0,0.0,0.03275109170305677,0.0,0.019650655021834062,0.008733624454148471,0.0,0.0,0.034934497816593885,0.0,0.019650655021834062,0.03056768558951965,0.013100436681222707,0.008733624454148471,0.03056768558951965,0.024017467248908297,0.017467248908296942,0.019650655021834062,0.017467248908296942,0.03711790393013101,0.03711790393013101,0.034934497816593885,0.03711790393013101,0.03275109170305677,0.03711790393013101,0.034934497816593885,0.0,0.0,0.034934497816593885,0.015283842794759825,0.0,0.017467248908296942,0.0,0.03711790393013101,0.028384279475982533,0.03275109170305677,0.0,0.0,0.0,0.03711790393013101,0.03275109170305677,0.034934497816593885,0.026200873362445413,0.0,0.03056768558951965,0.017467248908296942,0.034934497816593885,0.017467248908296942,0.0,0.03711790393013101,0.03711790393013101,0.0
S13_D15 hbo,0.0,0.0,0.049886621315192746,0.027210884353741496,0.034013605442176874,0.0,0.0,0.0,0.027210884353741496,0.0,0.02040816326530612,0.04308390022675737,0.0,0.0,0.018140589569160998,0.011337868480725623,0.024943310657596373,0.006802721088435374,0.0045351473922902496,0.03854875283446712,0.027210884353741496,0.022675736961451247,0.024943310657596373,0.05442176870748299,0.045351473922902494,0.05442176870748299,0.015873015873015872,0.024943310657596373,0.02947845804988662,0.0022675736961451248,0.0,0.0045351473922902496,0.0,0.02947845804988662,0.015873015873015872,0.02040816326530612,0.0,0.0,0.0,0.034013605442176874,0.03854875283446712,0.022675736961451247,0.05215419501133787,0.0,0.018140589569160998,0.03854875283446712,0.03854875283446712,0.0045351473922902496,0.0,0.031746031746031744,0.04308390022675737,0.0
S14_D12 hbo,0.0,0.0,0.0,0.0,0.0,0.0,0.0,0.0,0.0,0.0,0.0,0.0,0.0,0.0,0.0,0.0,0.0,0.0,0.0,0.0,0.0,0.0,0.0,0.0,0.0,0.0,0.0,0.0,0.0,0.0,0.0,0.0,0.0,0.0,0.0,0.0,0.0,0.0,0.0,0.0,0.0,0.0,0.0,0.0,0.0,0.0,0.0,0.0,0.0,0.0,0.0,0.0
S14_D13 hbo,0.0,0.0,0.03132530120481928,0.0,0.016867469879518072,0.00963855421686747,0.0,0.0,0.033734939759036145,0.0,0.01927710843373494,0.02891566265060241,0.014457831325301205,0.00963855421686747,0.033734939759036145,0.02650602409638554,0.014457831325301205,0.021686746987951807,0.01927710843373494,0.03614457831325301,0.03614457831325301,0.03614457831325301,0.03614457831325301,0.03132530120481928,0.03614457831325301,0.033734939759036145,0.0,0.0,0.033734939759036145,0.016867469879518072,0.0,0.01927710843373494,0.0,0.03614457831325301,0.03132530120481928,0.03614457831325301,0.0,0.0,0.0,0.03614457831325301,0.03132530120481928,0.03614457831325301,0.024096385542168676,0.0,0.033734939759036145,0.014457831325301205,0.033734939759036145,0.01927710843373494,0.0,0.03614457831325301,0.03614457831325301,0.0
S14_D14 hbo,0.0,0.0,0.054838709677419356,0.02903225806451613,0.041935483870967745,0.0,0.0,0.0,0.025806451612903226,0.0,0.01935483870967742,0.04838709677419355,0.0,0.0,0.012903225806451613,0.0032258064516129032,0.03225806451612903,0.0,0.0,0.041935483870967745,0.025806451612903226,0.01935483870967742,0.02258064516129032,0.054838709677419356,0.05161290322580645,0.054838709677419356,0.012903225806451613,0.025806451612903226,0.02903225806451613,0.0,0.0,0.0,0.0,0.02903225806451613,0.00967741935483871,0.016129032258064516,0.0,0.0,0.0,0.035483870967741936,0.041935483870967745,0.01935483870967742,0.054838709677419356,0.0,0.012903225806451613,0.05161290322580645,0.041935483870967745,0.0,0.0,0.03225806451612903,0.04838709677419355,0.0
S14_D16 hbo,0.0,0.0,0.04263565891472868,0.011627906976744186,0.029069767441860465,0.003875968992248062,0.0,0.0,0.031007751937984496,0.0,0.01744186046511628,0.040697674418604654,0.007751937984496124,0.003875968992248062,0.023255813953488372,0.01744186046511628,0.02131782945736434,0.013565891472868217,0.011627906976744186,0.040697674418604654,0.031007751937984496,0.027131782945736434,0.029069767441860465,0.04263565891472868,0.04263565891472868,0.04263565891472868,0.001937984496124031,0.009689922480620155,0.03294573643410853,0.009689922480620155,0.0,0.011627906976744186,0.0,0.03294573643410853,0.02131782945736434,0.025193798449612403,0.0,0.0,0.0,0.03682170542635659,0.040697674418604654,0.027131782945736434,0.03682170542635659,0.0,0.023255813953488372,0.029069767441860465,0.040697674418604654,0.011627906976744186,0.0,0.03488372093023256,0.04263565891472868,0.0
S15_D13 hbo,0.0,0.0,0.027450980392156862,0.0,0.00392156862745098,0.01568627450980392,0.0,0.0,0.03137254901960784,0.0,0.00784313725490196,0.023529411764705882,0.023529411764705882,0.01568627450980392,0.03529411764705882,0.03529411764705882,0.0,0.03529411764705882,0.03137254901960784,0.03529411764705882,0.03529411764705882,0.03529411764705882,0.03529411764705882,0.027450980392156862,0.03529411764705882,0.03137254901960784,0.0,0.0,0.03137254901960784,0.027450980392156862,0.0,0.03137254901960784,0.0,0.03529411764705882,0.03529411764705882,0.03529411764705882,0.0,0.0,0.0,0.03529411764705882,0.027450980392156862,0.03529411764705882,0.01568627450980392,0.0,0.03529411764705882,0.0,0.03137254901960784,0.03137254901960784,0.0,0.03529411764705882,0.03529411764705882,0.0
S15_D15 hbo,0.0,0.0,0.0,0.0,0.0,0.0,0.0,0.0,0.0,0.0,0.0,0.0,0.0,0.0,0.0,0.0,0.0,0.0,0.0,0.0,0.0,0.0,0.0,0.0,0.0,0.0,0.0,0.0,0.0,0.0,0.0,0.0,0.0,0.0,0.0,0.0,0.0,0.0,0.0,0.0,0.0,0.0,0.0,0.0,0.0,0.0,0.0,0.0,0.0,0.0,0.0,0.0
S15_D16 hbo,0.0,0.0,0.036053130929791274,0.0056925996204933585,0.024667931688804556,0.007590132827324478,0.0,0.0,0.03225806451612903,0.0,0.017077798861480076,0.03415559772296015,0.011385199240986717,0.007590132827324478,0.026565464895635674,0.020872865275142316,0.020872865275142316,0.017077798861480076,0.015180265654648957,0.03984819734345351,0.03415559772296015,0.030360531309297913,0.03225806451612903,0.036053130929791274,0.03984819734345351,0.03795066413662239,0.0,0.003795066413662239,0.03415559772296015,0.013282732447817837,0.0,0.015180265654648957,0.0,0.036053130929791274,0.024667931688804556,0.028462998102466792,0.0,0.0,0.0,0.03984819734345351,0.036053130929791274,0.030360531309297913,0.030360531309297913,0.0,0.026565464895635674,0.022770398481973434,0.03795066413662239,0.015180265654648957,0.0,0.03795066413662239,0.03984819734345351,0.0
S16_D14 hbo,0.0,0.0,0.040955631399317405,0.013651877133105802,0.025597269624573378,0.006825938566552901,0.0,0.0,0.02901023890784983,0.0,0.015358361774744027,0.03754266211604096,0.010238907849829351,0.006825938566552901,0.023890784982935155,0.01877133105802048,0.01877133105802048,0.015358361774744027,0.013651877133105802,0.03924914675767918,0.030716723549488054,0.027303754266211604,0.02901023890784983,0.040955631399317405,0.04436860068259386,0.042662116040955635,0.005119453924914676,0.011945392491467578,0.030716723549488054,0.011945392491467578,0.0,0.013651877133105802,0.0,0.032423208191126277,0.02218430034129693,0.025597269624573378,0.0,0.0,0.0,0.03583617747440273,0.03583617747440273,0.027303754266211604,0.03583617747440273,0.0,0.023890784982935155,0.02901023890784983,0.03754266211604096,0.013651877133105802,0.0,0.034129692832764506,0.042662116040955635,0.0
S16_D16 hbo,0.0,0.0,0.0,0.0,0.0,0.0,0.0,0.0,0.0,0.0,0.0,0.0,0.0,0.0,0.0,0.0,0.0,0.0,0.0,0.0,0.0,0.0,0.0,0.0,0.0,0.0,0.0,0.0,0.0,0.0,0.0,0.0,0.0,0.0,0.0,0.0,0.0,0.0,0.0,0.0,0.0,0.0,0.0,0.0,0.0,0.0,0.0,0.0,0.0,0.0,0.0,0.0
