,S1_D1 hbo,S1_D3 hbo,S2_D1 hbo,S2_D2 hbo,S2_D4 hbo,S3_D1 hbo,S3_D3 hbo,S3_D4 hbo,S3_D5 hbo,S4_D2 hbo,S4_D4 hbo,S4_D6 hbo,S4_D11 hbo,S5_D3 hbo,S5_D5 hbo,S5_D7 hbo,S6_D4 hbo,S6_D5 hbo,S6_D6 hbo,S6_D8 hbo,S7_D5 hbo,S7_D7 hbo,S7_D8 hbo,S8_D6 hbo,S8_D8 hbo,S8_D15 hbo,S9_D2 hbo,S9_D9 hbo,S9_D11 hbo,S10_D9 hbo,S10_D10 hbo,S10_D12 hbo,S11_D9 hbo,S11_D11 hbo,S11_D12 hbo,S11_D13 hbo,S12_D10 hbo,S12_D12 hbo,S12_D14 hbo,S13_D6 hbo,S13_D11 hbo,S13_D13 hbo,S13_D15 hbo,S14_D12 hbo,S14_D13 hbo,S14_D14 hbo,S14_D16 hbo,S15_D13 hbo,S15_D15 hbo,S15_D16 hbo,S16_D14 hbo,S16_D16 hbo
S1_D1 hbo,0.01948051948051948,0.02077922077922078,0.02077922077922078,0.02077922077922078,0.02077922077922078,0.02077922077922078,0.02077922077922078,0.01948051948051948,0.01948051948051948,0.02077922077922078,0.02077922077922078,0.02077922077922078,0.02077922077922078,0.02077922077922078,0.02077922077922078,0.02077922077922078,0.01948051948051948,0.02077922077922078,0.02077922077922078,0.02077922077922078,0.02077922077922078,0.02077922077922078,0.01818181818181818,0.02077922077922078,0.02077922077922078,0.02077922077922078,0.02077922077922078,0.02077922077922078,0.02077922077922078,0.02077922077922078,0.02077922077922078,0.02077922077922078,0.02077922077922078,0.02077922077922078,0.02077922077922078,0.014285714285714285,0.01948051948051948,0.0,0.0,0.02077922077922078,0.02077922077922078,0.01948051948051948,0.01818181818181818,0.01818181818181818,0.015584415584415584,0.014285714285714285,0.02077922077922078,0.01948051948051948,0.02077922077922078,0.02077922077922078,0.016883116883116882,0.02077922077922078
S1_D3 hbo,0.018891687657430732,0.020151133501259445,0.021410579345088162,0.020151133501259445,0.020151133501259445,0.020151133501259445,0.021410579345088162,0.018891687657430732,0.018891687657430732,0.021410579345088162,0.021410579345088162,0.021410579345088162,0.021410579345088162,0.021410579345088162,0.021410579345088162,0.021410579345088162,0.018891687657430732,0.021410579345088162,0.021410579345088162,0.020151133501259445,0.021410579345088162,0.021410579345088162,0.017632241813602016,0.021410579345088162,0.021410579345088162,0.020151133501259445,0.021410579345088162,0.021410579345088162,0.021410579345088162,0.021410579345088162,0.021410579345088162,0.020151133501259445,0.021410579345088162,0.020151133501259445,0.020151133501259445,0.013853904282115869,0.018891687657430732,0.0,0.0,0.021410579345088162,0.020151133501259445,0.018891687657430732,0.017632241813602016,0.017632241813602016,0.015113350125944584,0.013853904282115869,0.020151133501259445,0.018891687657430732,0.021410579345088162,0.021410579345088162,0.0163727959697733,0.020151133501259445
S2_D1 hbo,0.01858736059479554,0.01982651796778191,0.021065675340768277,0.01982651796778191,0.01982651796778191,0.01982651796778191,0.021065675340768277,0.01858736059479554,0.01858736059479554,0.022304832713754646,0.022304832713754646,0.022304832713754646,0.022304832713754646,0.022304832713754646,0.021065675340768277,0.021065675340768277,0.01858736059479554,0.022304832713754646,0.022304832713754646,0.01982651796778191,0.021065675340768277,0.021065675340768277,0.01734820322180917,0.022304832713754646,0.022304832713754646,0.01982651796778191,0.021065675340768277,0.021065675340768277,0.022304832713754646,0.021065675340768277,0.022304832713754646,0.01982651796778191,0.022304832713754646,0.01982651796778191,0.01982651796778191,0.013630731102850062,0.01858736059479554,0.0,0.0,0.022304832713754646,0.01982651796778191,0.01858736059479554,0.01734820322180917,0.01734820322180917,0.01486988847583643,0.013630731102850062,0.01982651796778191,0.01858736059479554,0.021065675340768277,0.021065675340768277,0.0161090458488228,0.01982651796778191
S2_D2 hbo,0.018891687657430732,0.020151133501259445,0.021410579345088162,0.020151133501259445,0.020151133501259445,0.020151133501259445,0.021410579345088162,0.018891687657430732,0.018891687657430732,0.021410579345088162,0.021410579345088162,0.021410579345088162,0.021410579345088162,0.021410579345088162,0.021410579345088162,0.021410579345088162,0.018891687657430732,0.021410579345088162,0.021410579345088162,0.020151133501259445,0.021410579345088162,0.021410579345088162,0.017632241813602016,0.021410579345088162,0.021410579345088162,0.020151133501259445,0.021410579345088162,0.021410579345088162,0.021410579345088162,0.021410579345088162,0.021410579345088162,0.020151133501259445,0.021410579345088162,0.020151133501259445,0.020151133501259445,0.013853904282115869,0.018891687657430732,0.0,0.0,0.021410579345088162,0.020151133501259445,0.018891687657430732,0.017632241813602016,0.017632241813602016,0.015113350125944584,0.013853904282115869,0.020151133501259445,0.018891687657430732,0.021410579345088162,0.021410579345088162,0.0163727959697733,0.020151133501259445
S2_D4 hbo,0.018891687657430732,0.020151133501259445,0.021410579345088162,0.020151133501259445,0.020151133501259445,0.020151133501259445,0.021410579345088162,0.018891687657430732,0.018891687657430732,0.021410579345088162,0.021410579345088162,0.021410579345088162,0.021410579345088162,0.021410579345088162,0.021410579345088162,0.021410579345088162,0.018891687657430732,0.021410579345088162,0.021410579345088162,0.020151133501259445,0.021410579345088162,0.021410579345088162,0.017632241813602016,0.021410579345088162,0.021410579345088162,0.020151133501259445,0.021410579345088162,0.021410579345088162,0.021410579345088162,0.021410579345088162,0.021410579345088162,0.020151133501259445,0.021410579345088162,0.020151133501259445,0.020151133501259445,0.013853904282115869,0.018891687657430732,0.0,0.0,0.021410579345088162,0.020151133501259445,0.018891687657430732,0.017632241813602016,0.017632241813602016,0.015113350125944584,0.013853904282115869,0.020151133501259445,0.018891687657430732,0.021410579345088162,0.021410579345088162,0.0163727959697733,0.020151133501259445
S3_D1 hbo,0.018891687657430732,0.020151133501259445,0.021410579345088162,0.020151133501259445,0.020151133501259445,0.020151133501259445,0.021410579345088162,0.018891687657430732,0.018891687657430732,0.021410579345088162,0.021410579345088162,0.021410579345088162,0.021410579345088162,0.021410579345088162,0.021410579345088162,0.021410579345088162,0.018891687657430732,0.021410579345088162,0.021410579345088162,0.020151133501259445,0.021410579345088162,0.021410579345088162,0.017632241813602016,0.021410579345088162,0.021410579345088162,0.020151133501259445,0.021410579345088162,0.021410579345088162,0.021410579345088162,0.021410579345088162,0.021410579345088162,0.020151133501259445,0.021410579345088162,0.020151133501259445,0.020151133501259445,0.013853904282115869,0.018891687657430732,0.0,0.0,0.021410579345088162,0.020151133501259445,0.018891687657430732,0.017632241813602016,0.017632241813602016,0.015113350125944584,0.013853904282115869,0.020151133501259445,0.018891687657430732,0.021410579345088162,0.021410579345088162,0.0163727959697733,0.020151133501259445
S3_D3 hbo,0.01858736059479554,0.01982651796778191,0.021065675340768277,0.01982651796778191,0.01982651796778191,0.01982651796778191,0.021065675340768277,0.01858736059479554,0.01858736059479554,0.022304832713754646,0.022304832713754646,0.022304832713754646,0.022304832713754646,0.022304832713754646,0.021065675340768277,0.021065675340768277,0.01858736059479554,0.022304832713754646,0.022304832713754646,0.01982651796778191,0.021065675340768277,0.021065675340768277,0.01734820322180917,0.022304832713754646,0.022304832713754646,0.01982651796778191,0.021065675340768277,0.021065675340768277,0.022304832713754646,0.021065675340768277,0.022304832713754646,0.01982651796778191,0.022304832713754646,0.01982651796778191,0.01982651796778191,0.013630731102850062,0.01858736059479554,0.0,0.0,0.022304832713754646,0.01982651796778191,0.01858736059479554,0.01734820322180917,0.01734820322180917,0.01486988847583643,0.013630731102850062,0.01982651796778191,0.01858736059479554,0.021065675340768277,0.021065675340768277,0.0161090458488228,0.01982651796778191
S3_D4 hbo,0.01948051948051948,0.02077922077922078,0.02077922077922078,0.02077922077922078,0.02077922077922078,0.02077922077922078,0.02077922077922078,0.01948051948051948,0.01948051948051948,0.02077922077922078,0.02077922077922078,0.02077922077922078,0.02077922077922078,0.02077922077922078,0.02077922077922078,0.02077922077922078,0.01948051948051948,0.02077922077922078,0.02077922077922078,0.02077922077922078,0.02077922077922078,0.02077922077922078,0.01818181818181818,0.02077922077922078,0.02077922077922078,0.02077922077922078,0.02077922077922078,0.02077922077922078,0.02077922077922078,0.02077922077922078,0.02077922077922078,0.02077922077922078,0.02077922077922078,0.02077922077922078,0.02077922077922078,0.014285714285714285,0.01948051948051948,0.0,0.0,0.02077922077922078,0.02077922077922078,0.01948051948051948,0.01818181818181818,0.01818181818181818,0.015584415584415584,0.014285714285714285,0.02077922077922078,0.01948051948051948,0.02077922077922078,0.02077922077922078,0.016883116883116882,0.02077922077922078
S3_D5 hbo,0.01948051948051948,0.02077922077922078,0.02077922077922078,0.02077922077922078,0.02077922077922078,0.02077922077922078,0.02077922077922078,0.01948051948051948,0.01948051948051948,0.02077922077922078,0.02077922077922078,0.02077922077922078,0.02077922077922078,0.02077922077922078,0.02077922077922078,0.02077922077922078,0.01948051948051948,0.02077922077922078,0.02077922077922078,0.02077922077922078,0.02077922077922078,0.02077922077922078,0.01818181818181818,0.02077922077922078,0.02077922077922078,0.02077922077922078,0.02077922077922078,0.02077922077922078,0.02077922077922078,0.02077922077922078,0.02077922077922078,0.02077922077922078,0.02077922077922078,0.02077922077922078,0.02077922077922078,0.014285714285714285,0.01948051948051948,0.0,0.0,0.02077922077922078,0.02077922077922078,0.01948051948051948,0.01818181818181818,0.01818181818181818,0.015584415584415584,0.014285714285714285,0.02077922077922078,0.01948051948051948,0.02077922077922078,0.02077922077922078,0.016883116883116882,0.02077922077922078
S4_D2 hbo,0.01847290640394089,0.019704433497536946,0.020935960591133004,0.019704433497536946,0.019704433497536946,0.019704433497536946,0.020935960591133004,0.01847290640394089,0.01847290640394089,0.022167487684729065,0.022167487684729065,0.022167487684729065,0.022167487684729065,0.022167487684729065,0.020935960591133004,0.020935960591133004,0.01847290640394089,0.022167487684729065,0.023399014778325122,0.019704433497536946,0.020935960591133004,0.020935960591133004,0.017241379310344827,0.023399014778325122,0.023399014778325122,0.019704433497536946,0.020935960591133004,0.020935960591133004,0.022167487684729065,0.020935960591133004,0.022167487684729065,0.019704433497536946,0.023399014778325122,0.019704433497536946,0.019704433497536946,0.013546798029556651,0.01847290640394089,0.0,0.0,0.023399014778325122,0.019704433497536946,0.01847290640394089,0.017241379310344827,0.017241379310344827,0.014778325123152709,0.013546798029556651,0.019704433497536946,0.01847290640394089,0.020935960591133004,0.020935960591133004,0.01600985221674877,0.019704433497536946
S4_D4 hbo,0.01847290640394089,0.019704433497536946,0.020935960591133004,0.019704433497536946,0.019704433497536946,0.019704433497536946,0.020935960591133004,0.01847290640394089,0.01847290640394089,0.022167487684729065,0.022167487684729065,0.022167487684729065,0.022167487684729065,0.022167487684729065,0.020935960591133004,0.020935960591133004,0.01847290640394089,0.022167487684729065,0.023399014778325122,0.019704433497536946,0.020935960591133004,0.020935960591133004,0.017241379310344827,0.023399014778325122,0.023399014778325122,0.019704433497536946,0.020935960591133004,0.020935960591133004,0.022167487684729065,0.020935960591133004,0.022167487684729065,0.019704433497536946,0.023399014778325122,0.019704433497536946,0.019704433497536946,0.013546798029556651,0.01847290640394089,0.0,0.0,0.023399014778325122,0.019704433497536946,0.01847290640394089,0.017241379310344827,0.017241379310344827,0.014778325123152709,0.013546798029556651,0.019704433497536946,0.01847290640394089,0.020935960591133004,0.020935960591133004,0.01600985221674877,0.019704433497536946
S4_D6 hbo,0.01847290640394089,0.019704433497536946,0.020935960591133004,0.019704433497536946,0.019704433497536946,0.019704433497536946,0.020935960591133004,0.01847290640394089,0.01847290640394089,0.022167487684729065,0.022167487684729065,0.022167487684729065,0.022167487684729065,0.022167487684729065,0.020935960591133004,0.020935960591133004,0.01847290640394089,0.022167487684729065,0.023399014778325122,0.019704433497536946,0.020935960591133004,0.020935960591133004,0.017241379310344827,0.023399014778325122,0.023399014778325122,0.019704433497536946,0.020935960591133004,0.020935960591133004,0.022167487684729065,0.020935960591133004,0.022167487684729065,0.019704433497536946,0.023399014778325122,0.019704433497536946,0.019704433497536946,0.013546798029556651,0.01847290640394089,0.0,0.0,0.023399014778325122,0.019704433497536946,0.01847290640394089,0.017241379310344827,0.017241379310344827,0.014778325123152709,0.013546798029556651,0.019704433497536946,0.01847290640394089,0.020935960591133004,0.020935960591133004,0.01600985221674877,0.019704433497536946
S4_D11 hbo,0.01847290640394089,0.019704433497536946,0.020935960591133004,0.019704433497536946,0.019704433497536946,0.019704433497536946,0.020935960591133004,0.01847290640394089,0.01847290640394089,0.022167487684729065,0.022167487684729065,0.022167487684729065,0.022167487684729065,0.022167487684729065,0.020935960591133004,0.020935960591133004,0.01847290640394089,0.022167487684729065,0.023399014778325122,0.019704433497536946,0.020935960591133004,0.020935960591133004,0.017241379310344827,0.023399014778325122,0.023399014778325122,0.019704433497536946,0.020935960591133004,0.020935960591133004,0.022167487684729065,0.020935960591133004,0.022167487684729065,0.019704433497536946,0.023399014778325122,0.019704433497536946,0.019704433497536946,0.013546798029556651,0.01847290640394089,0.0,0.0,0.023399014778325122,0.019704433497536946,0.01847290640394089,0.017241379310344827,0.017241379310344827,0.014778325123152709,0.013546798029556651,0.019704433497536946,0.01847290640394089,0.020935960591133004,0.020935960591133004,0.01600985221674877,0.019704433497536946
S5_D3 hbo,0.01847290640394089,0.019704433497536946,0.020935960591133004,0.019704433497536946,0.019704433497536946,0.019704433497536946,0.020935960591133004,0.01847290640394089,0.01847290640394089,0.022167487684729065,0.022167487684729065,0.022167487684729065,0.022167487684729065,0.022167487684729065,0.020935960591133004,0.020935960591133004,0.01847290640394089,0.022167487684729065,0.023399014778325122,0.019704433497536946,0.020935960591133004,0.020935960591133004,0.017241379310344827,0.023399014778325122,0.023399014778325122,0.019704433497536946,0.020935960591133004,0.020935960591133004,0.022167487684729065,0.020935960591133004,0.022167487684729065,0.019704433497536946,0.023399014778325122,0.019704433497536946,0.019704433497536946,0.013546798029556651,0.01847290640394089,0.0,0.0,0.023399014778325122,0.019704433497536946,0.01847290640394089,0.017241379310344827,0.017241379310344827,0.014778325123152709,0.013546798029556651,0.019704433497536946,0.01847290640394089,0.020935960591133004,0.020935960591133004,0.01600985221674877,0.019704433497536946
S5_D5 hbo,0.01858736059479554,0.01982651796778191,0.021065675340768277,0.01982651796778191,0.01982651796778191,0.01982651796778191,0.021065675340768277,0.01858736059479554,0.01858736059479554,0.022304832713754646,0.022304832713754646,0.022304832713754646,0.022304832713754646,0.022304832713754646,0.021065675340768277,0.021065675340768277,0.01858736059479554,0.022304832713754646,0.022304832713754646,0.01982651796778191,0.021065675340768277,0.021065675340768277,0.01734820322180917,0.022304832713754646,0.022304832713754646,0.01982651796778191,0.021065675340768277,0.021065675340768277,0.022304832713754646,0.021065675340768277,0.022304832713754646,0.01982651796778191,0.022304832713754646,0.01982651796778191,0.01982651796778191,0.013630731102850062,0.01858736059479554,0.0,0.0,0.022304832713754646,0.01982651796778191,0.01858736059479554,0.01734820322180917,0.01734820322180917,0.01486988847583643,0.013630731102850062,0.01982651796778191,0.01858736059479554,0.021065675340768277,0.021065675340768277,0.0161090458488228,0.01982651796778191
S5_D7 hbo,0.01858736059479554,0.01982651796778191,0.021065675340768277,0.01982651796778191,0.01982651796778191,0.01982651796778191,0.021065675340768277,0.01858736059479554,0.01858736059479554,0.022304832713754646,0.022304832713754646,0.022304832713754646,0.022304832713754646,0.022304832713754646,0.021065675340768277,0.021065675340768277,0.01858736059479554,0.022304832713754646,0.022304832713754646,0.01982651796778191,0.021065675340768277,0.021065675340768277,0.01734820322180917,0.022304832713754646,0.022304832713754646,0.01982651796778191,0.021065675340768277,0.021065675340768277,0.022304832713754646,0.021065675340768277,0.022304832713754646,0.01982651796778191,0.022304832713754646,0.01982651796778191,0.01982651796778191,0.013630731102850062,0.01858736059479554,0.0,0.0,0.022304832713754646,0.01982651796778191,0.01858736059479554,0.01734820322180917,0.01734820322180917,0.01486988847583643,0.013630731102850062,0.01982651796778191,0.01858736059479554,0.021065675340768277,0.021065675340768277,0.0161090458488228,0.01982651796778191
S6_D4 hbo,0.01948051948051948,0.02077922077922078,0.02077922077922078,0.02077922077922078,0.02077922077922078,0.02077922077922078,0.02077922077922078,0.01948051948051948,0.01948051948051948,0.02077922077922078,0.02077922077922078,0.02077922077922078,0.02077922077922078,0.02077922077922078,0.02077922077922078,0.02077922077922078,0.01948051948051948,0.02077922077922078,0.02077922077922078,0.02077922077922078,0.02077922077922078,0.02077922077922078,0.01818181818181818,0.02077922077922078,0.02077922077922078,0.02077922077922078,0.02077922077922078,0.02077922077922078,0.02077922077922078,0.02077922077922078,0.02077922077922078,0.02077922077922078,0.02077922077922078,0.02077922077922078,0.02077922077922078,0.014285714285714285,0.01948051948051948,0.0,0.0,0.02077922077922078,0.02077922077922078,0.01948051948051948,0.01818181818181818,0.01818181818181818,0.015584415584415584,0.014285714285714285,0.02077922077922078,0.01948051948051948,0.02077922077922078,0.02077922077922078,0.016883116883116882,0.02077922077922078
S6_D5 hbo,0.01847290640394089,0.019704433497536946,0.020935960591133004,0.019704433497536946,0.019704433497536946,0.019704433497536946,0.020935960591133004,0.01847290640394089,0.01847290640394089,0.022167487684729065,0.022167487684729065,0.022167487684729065,0.022167487684729065,0.022167487684729065,0.020935960591133004,0.020935960591133004,0.01847290640394089,0.022167487684729065,0.023399014778325122,0.019704433497536946,0.020935960591133004,0.020935960591133004,0.017241379310344827,0.023399014778325122,0.023399014778325122,0.019704433497536946,0.020935960591133004,0.020935960591133004,0.022167487684729065,0.020935960591133004,0.022167487684729065,0.019704433497536946,0.023399014778325122,0.019704433497536946,0.019704433497536946,0.013546798029556651,0.01847290640394089,0.0,0.0,0.023399014778325122,0.019704433497536946,0.01847290640394089,0.017241379310344827,0.017241379310344827,0.014778325123152709,0.013546798029556651,0.019704433497536946,0.01847290640394089,0.020935960591133004,0.020935960591133004,0.01600985221674877,0.019704433497536946
S6_D6 hbo,0.01838235294117647,0.0196078431372549,0.020833333333333332,0.0196078431372549,0.0196078431372549,0.0196078431372549,0.020833333333333332,0.01838235294117647,0.01838235294117647,0.022058823529411766,0.022058823529411766,0.022058823529411766,0.022058823529411766,0.022058823529411766,0.020833333333333332,0.020833333333333332,0.01838235294117647,0.022058823529411766,0.024509803921568627,0.0196078431372549,0.020833333333333332,0.020833333333333332,0.01715686274509804,0.024509803921568627,0.023284313725490197,0.0196078431372549,0.020833333333333332,0.020833333333333332,0.022058823529411766,0.020833333333333332,0.022058823529411766,0.0196078431372549,0.024509803921568627,0.0196078431372549,0.0196078431372549,0.013480392156862746,0.01838235294117647,0.0,0.0,0.024509803921568627,0.0196078431372549,0.01838235294117647,0.01715686274509804,0.01715686274509804,0.014705882352941176,0.013480392156862746,0.0196078431372549,0.01838235294117647,0.020833333333333332,0.020833333333333332,0.015931372549019607,0.0196078431372549
S6_D8 hbo,0.018891687657430732,0.020151133501259445,0.021410579345088162,0.020151133501259445,0.020151133501259445,0.020151133501259445,0.021410579345088162,0.018891687657430732,0.018891687657430732,0.021410579345088162,0.021410579345088162,0.021410579345088162,0.021410579345088162,0.021410579345088162,0.021410579345088162,0.021410579345088162,0.018891687657430732,0.021410579345088162,0.021410579345088162,0.020151133501259445,0.021410579345088162,0.021410579345088162,0.017632241813602016,0.021410579345088162,0.021410579345088162,0.020151133501259445,0.021410579345088162,0.021410579345088162,0.021410579345088162,0.021410579345088162,0.021410579345088162,0.020151133501259445,0.021410579345088162,0.020151133501259445,0.020151133501259445,0.013853904282115869,0.018891687657430732,0.0,0.0,0.021410579345088162,0.020151133501259445,0.018891687657430732,0.017632241813602016,0.017632241813602016,0.015113350125944584,0.013853904282115869,0.020151133501259445,0.018891687657430732,0.021410579345088162,0.021410579345088162,0.0163727959697733,0.020151133501259445
S7_D5 hbo,0.01858736059479554,0.01982651796778191,0.021065675340768277,0.01982651796778191,0.01982651796778191,0.01982651796778191,0.021065675340768277,0.01858736059479554,0.01858736059479554,0.022304832713754646,0.022304832713754646,0.022304832713754646,0.022304832713754646,0.022304832713754646,0.021065675340768277,0.021065675340768277,0.01858736059479554,0.022304832713754646,0.022304832713754646,0.01982651796778191,0.021065675340768277,0.021065675340768277,0.01734820322180917,0.022304832713754646,0.022304832713754646,0.01982651796778191,0.021065675340768277,0.021065675340768277,0.022304832713754646,0.021065675340768277,0.022304832713754646,0.01982651796778191,0.022304832713754646,0.01982651796778191,0.01982651796778191,0.013630731102850062,0.01858736059479554,0.0,0.0,0.022304832713754646,0.01982651796778191,0.01858736059479554,0.01734820322180917,0.01734820322180917,0.01486988847583643,0.013630731102850062,0.01982651796778191,0.01858736059479554,0.021065675340768277,0.021065675340768277,0.0161090458488228,0.01982651796778191
S7_D7 hbo,0.01858736059479554,0.01982651796778191,0.021065675340768277,0.01982651796778191,0.01982651796778191,0.01982651796778191,0.021065675340768277,0.01858736059479554,0.01858736059479554,0.022304832713754646,0.022304832713754646,0.022304832713754646,0.022304832713754646,0.022304832713754646,0.021065675340768277,0.021065675340768277,0.01858736059479554,0.022304832713754646,0.022304832713754646,0.01982651796778191,0.021065675340768277,0.021065675340768277,0.01734820322180917,0.022304832713754646,0.022304832713754646,0.01982651796778191,0.021065675340768277,0.021065675340768277,0.022304832713754646,0.021065675340768277,0.022304832713754646,0.01982651796778191,0.022304832713754646,0.01982651796778191,0.01982651796778191,0.013630731102850062,0.01858736059479554,0.0,0.0,0.022304832713754646,0.01982651796778191,0.01858736059479554,0.01734820322180917,0.01734820322180917,0.01486988847583643,0.013630731102850062,0.01982651796778191,0.01858736059479554,0.021065675340768277,0.021065675340768277,0.0161090458488228,0.01982651796778191
S7_D8 hbo,0.020435967302452316,0.020435967302452316,0.020435967302452316,0.020435967302452316,0.020435967302452316,0.020435967302452316,0.020435967302452316,0.020435967302452316,0.020435967302452316,0.020435967302452316,0.020435967302452316,0.020435967302452316,0.020435967302452316,0.020435967302452316,0.020435967302452316,0.020435967302452316,0.020435967302452316,0.020435967302452316,0.020435967302452316,0.020435967302452316,0.020435967302452316,0.020435967302452316,0.01907356948228883,0.020435967302452316,0.020435967302452316,0.020435967302452316,0.020435967302452316,0.020435967302452316,0.020435967302452316,0.020435967302452316,0.020435967302452316,0.020435967302452316,0.020435967302452316,0.020435967302452316,0.020435967302452316,0.014986376021798364,0.020435967302452316,0.0,0.0,0.020435967302452316,0.020435967302452316,0.020435967302452316,0.01907356948228883,0.01907356948228883,0.01634877384196185,0.014986376021798364,0.020435967302452316,0.020435967302452316,0.020435967302452316,0.020435967302452316,0.017711171662125342,0.020435967302452316
S8_D6 hbo,0.01838235294117647,0.0196078431372549,0.020833333333333332,0.0196078431372549,0.0196078431372549,0.0196078431372549,0.020833333333333332,0.01838235294117647,0.01838235294117647,0.022058823529411766,0.022058823529411766,0.022058823529411766,0.022058823529411766,0.022058823529411766,0.020833333333333332,0.020833333333333332,0.01838235294117647,0.022058823529411766,0.024509803921568627,0.0196078431372549,0.020833333333333332,0.020833333333333332,0.01715686274509804,0.024509803921568627,0.023284313725490197,0.0196078431372549,0.020833333333333332,0.020833333333333332,0.022058823529411766,0.020833333333333332,0.022058823529411766,0.0196078431372549,0.024509803921568627,0.0196078431372549,0.0196078431372549,0.013480392156862746,0.01838235294117647,0.0,0.0,0.024509803921568627,0.0196078431372549,0.01838235294117647,0.01715686274509804,0.01715686274509804,0.014705882352941176,0.013480392156862746,0.0196078431372549,0.01838235294117647,0.020833333333333332,0.020833333333333332,0.015931372549019607,0.0196078431372549
S8_D8 hbo,0.01838235294117647,0.0196078431372549,0.020833333333333332,0.0196078431372549,0.0196078431372549,0.0196078431372549,0.020833333333333332,0.01838235294117647,0.01838235294117647,0.022058823529411766,0.022058823529411766,0.022058823529411766,0.022058823529411766,0.022058823529411766,0.020833333333333332,0.020833333333333332,0.01838235294117647,0.022058823529411766,0.024509803921568627,0.0196078431372549,0.020833333333333332,0.020833333333333332,0.01715686274509804,0.024509803921568627,0.023284313725490197,0.0196078431372549,0.020833333333333332,0.020833333333333332,0.022058823529411766,0.020833333333333332,0.022058823529411766,0.0196078431372549,0.024509803921568627,0.0196078431372549,0.0196078431372549,0.013480392156862746,0.01838235294117647,0.0,0.0,0.024509803921568627,0.0196078431372549,0.01838235294117647,0.01715686274509804,0.01715686274509804,0.014705882352941176,0.013480392156862746,0.0196078431372549,0.01838235294117647,0.020833333333333332,0.020833333333333332,0.015931372549019607,0.0196078431372549
S8_D15 hbo,0.018891687657430732,0.020151133501259445,0.021410579345088162,0.020151133501259445,0.020151133501259445,0.020151133501259445,0.021410579345088162,0.018891687657430732,0.018891687657430732,0.021410579345088162,0.021410579345088162,0.021410579345088162,0.021410579345088162,0.021410579345088162,0.021410579345088162,0.021410579345088162,0.018891687657430732,0.021410579345088162,0.021410579345088162,0.020151133501259445,0.021410579345088162,0.021410579345088162,0.017632241813602016,0.021410579345088162,0.021410579345088162,0.020151133501259445,0.021410579345088162,0.021410579345088162,0.021410579345088162,0.021410579345088162,0.021410579345088162,0.020151133501259445,0.021410579345088162,0.020151133501259445,0.020151133501259445,0.013853904282115869,0.018891687657430732,0.0,0.0,0.021410579345088162,0.020151133501259445,0.018891687657430732,0.017632241813602016,0.017632241813602016,0.015113350125944584,0.013853904282115869,0.020151133501259445,0.018891687657430732,0.021410579345088162,0.021410579345088162,0.0163727959697733,0.020151133501259445
S9_D2 hbo,0.01858736059479554,0.01982651796778191,0.021065675340768277,0.01982651796778191,0.01982651796778191,0.01982651796778191,0.021065675340768277,0.01858736059479554,0.01858736059479554,0.022304832713754646,0.022304832713754646,0.022304832713754646,0.022304832713754646,0.022304832713754646,0.021065675340768277,0.021065675340768277,0.01858736059479554,0.022304832713754646,0.022304832713754646,0.01982651796778191,0.021065675340768277,0.021065675340768277,0.01734820322180917,0.022304832713754646,0.022304832713754646,0.01982651796778191,0.021065675340768277,0.021065675340768277,0.022304832713754646,0.021065675340768277,0.022304832713754646,0.01982651796778191,0.022304832713754646,0.01982651796778191,0.01982651796778191,0.013630731102850062,0.01858736059479554,0.0,0.0,0.022304832713754646,0.01982651796778191,0.01858736059479554,0.01734820322180917,0.01734820322180917,0.01486988847583643,0.013630731102850062,0.01982651796778191,0.01858736059479554,0.021065675340768277,0.021065675340768277,0.0161090458488228,0.01982651796778191
S9_D9 hbo,0.01858736059479554,0.01982651796778191,0.021065675340768277,0.01982651796778191,0.01982651796778191,0.01982651796778191,0.021065675340768277,0.01858736059479554,0.01858736059479554,0.022304832713754646,0.022304832713754646,0.022304832713754646,0.022304832713754646,0.022304832713754646,0.021065675340768277,0.021065675340768277,0.01858736059479554,0.022304832713754646,0.022304832713754646,0.01982651796778191,0.021065675340768277,0.021065675340768277,0.01734820322180917,0.022304832713754646,0.022304832713754646,0.01982651796778191,0.021065675340768277,0.021065675340768277,0.022304832713754646,0.021065675340768277,0.022304832713754646,0.01982651796778191,0.022304832713754646,0.01982651796778191,0.01982651796778191,0.013630731102850062,0.01858736059479554,0.0,0.0,0.022304832713754646,0.01982651796778191,0.01858736059479554,0.01734820322180917,0.01734820322180917,0.01486988847583643,0.013630731102850062,0.01982651796778191,0.01858736059479554,0.021065675340768277,0.021065675340768277,0.0161090458488228,0.01982651796778191
S9_D11 hbo,0.01847290640394089,0.019704433497536946,0.020935960591133004,0.019704433497536946,0.019704433497536946,0.019704433497536946,0.020935960591133004,0.01847290640394089,0.01847290640394089,0.022167487684729065,0.022167487684729065,0.022167487684729065,0.022167487684729065,0.022167487684729065,0.020935960591133004,0.020935960591133004,0.01847290640394089,0.022167487684729065,0.023399014778325122,0.019704433497536946,0.020935960591133004,0.020935960591133004,0.017241379310344827,0.023399014778325122,0.023399014778325122,0.019704433497536946,0.020935960591133004,0.020935960591133004,0.022167487684729065,0.020935960591133004,0.022167487684729065,0.019704433497536946,0.023399014778325122,0.019704433497536946,0.019704433497536946,0.013546798029556651,0.01847290640394089,0.0,0.0,0.023399014778325122,0.019704433497536946,0.01847290640394089,0.017241379310344827,0.017241379310344827,0.014778325123152709,0.013546798029556651,0.019704433497536946,0.01847290640394089,0.020935960591133004,0.020935960591133004,0.01600985221674877,0.019704433497536946
S10_D9 hbo,0.01858736059479554,0.01982651796778191,0.021065675340768277,0.01982651796778191,0.01982651796778191,0.01982651796778191,0.021065675340768277,0.01858736059479554,0.01858736059479554,0.022304832713754646,0.022304832713754646,0.022304832713754646,0.022304832713754646,0.022304832713754646,0.021065675340768277,0.021065675340768277,0.01858736059479554,0.022304832713754646,0.022304832713754646,0.01982651796778191,0.021065675340768277,0.021065675340768277,0.01734820322180917,0.022304832713754646,0.022304832713754646,0.01982651796778191,0.021065675340768277,0.021065675340768277,0.022304832713754646,0.021065675340768277,0.022304832713754646,0.01982651796778191,0.022304832713754646,0.01982651796778191,0.01982651796778191,0.013630731102850062,0.01858736059479554,0.0,0.0,0.022304832713754646,0.01982651796778191,0.01858736059479554,0.01734820322180917,0.01734820322180917,0.01486988847583643,0.013630731102850062,0.01982651796778191,0.01858736059479554,0.021065675340768277,0.021065675340768277,0.0161090458488228,0.01982651796778191
S10_D10 hbo,0.01847290640394089,0.019704433497536946,0.020935960591133004,0.019704433497536946,0.019704433497536946,0.019704433497536946,0.020935960591133004,0.01847290640394089,0.01847290640394089,0.022167487684729065,0.022167487684729065,0.022167487684729065,0.022167487684729065,0.022167487684729065,0.020935960591133004,0.020935960591133004,0.01847290640394089,0.022167487684729065,0.023399014778325122,0.019704433497536946,0.020935960591133004,0.020935960591133004,0.017241379310344827,0.023399014778325122,0.023399014778325122,0.019704433497536946,0.020935960591133004,0.020935960591133004,0.022167487684729065,0.020935960591133004,0.022167487684729065,0.019704433497536946,0.023399014778325122,0.019704433497536946,0.019704433497536946,0.013546798029556651,0.01847290640394089,0.0,0.0,0.023399014778325122,0.019704433497536946,0.01847290640394089,0.017241379310344827,0.017241379310344827,0.014778325123152709,0.013546798029556651,0.019704433497536946,0.01847290640394089,0.020935960591133004,0.020935960591133004,0.01600985221674877,0.019704433497536946
S10_D12 hbo,0.018891687657430732,0.020151133501259445,0.021410579345088162,0.020151133501259445,0.020151133501259445,0.020151133501259445,0.021410579345088162,0.018891687657430732,0.018891687657430732,0.021410579345088162,0.021410579345088162,0.021410579345088162,0.021410579345088162,0.021410579345088162,0.021410579345088162,0.021410579345088162,0.018891687657430732,0.021410579345088162,0.021410579345088162,0.020151133501259445,0.021410579345088162,0.021410579345088162,0.017632241813602016,0.021410579345088162,0.021410579345088162,0.020151133501259445,0.021410579345088162,0.021410579345088162,0.021410579345088162,0.021410579345088162,0.021410579345088162,0.020151133501259445,0.021410579345088162,0.020151133501259445,0.020151133501259445,0.013853904282115869,0.018891687657430732,0.0,0.0,0.021410579345088162,0.020151133501259445,0.018891687657430732,0.017632241813602016,0.017632241813602016,0.015113350125944584,0.013853904282115869,0.020151133501259445,0.018891687657430732,0.021410579345088162,0.021410579345088162,0.0163727959697733,0.020151133501259445
S11_D9 hbo,0.01838235294117647,0.0196078431372549,0.020833333333333332,0.0196078431372549,0.0196078431372549,0.0196078431372549,0.020833333333333332,0.01838235294117647,0.01838235294117647,0.022058823529411766,0.022058823529411766,0.022058823529411766,0.022058823529411766,0.022058823529411766,0.020833333333333332,0.020833333333333332,0.01838235294117647,0.022058823529411766,0.024509803921568627,0.0196078431372549,0.020833333333333332,0.020833333333333332,0.01715686274509804,0.024509803921568627,0.023284313725490197,0.0196078431372549,0.020833333333333332,0.020833333333333332,0.022058823529411766,0.020833333333333332,0.022058823529411766,0.0196078431372549,0.024509803921568627,0.0196078431372549,0.0196078431372549,0.013480392156862746,0.01838235294117647,0.0,0.0,0.024509803921568627,0.0196078431372549,0.01838235294117647,0.01715686274509804,0.01715686274509804,0.014705882352941176,0.013480392156862746,0.0196078431372549,0.01838235294117647,0.020833333333333332,0.020833333333333332,0.015931372549019607,0.0196078431372549
S11_D11 hbo,0.018891687657430732,0.020151133501259445,0.021410579345088162,0.020151133501259445,0.020151133501259445,0.020151133501259445,0.021410579345088162,0.018891687657430732,0.018891687657430732,0.021410579345088162,0.021410579345088162,0.021410579345088162,0.021410579345088162,0.021410579345088162,0.021410579345088162,0.021410579345088162,0.018891687657430732,0.021410579345088162,0.021410579345088162,0.020151133501259445,0.021410579345088162,0.021410579345088162,0.017632241813602016,0.021410579345088162,0.021410579345088162,0.020151133501259445,0.021410579345088162,0.021410579345088162,0.021410579345088162,0.021410579345088162,0.021410579345088162,0.020151133501259445,0.021410579345088162,0.020151133501259445,0.020151133501259445,0.013853904282115869,0.018891687657430732,0.0,0.0,0.021410579345088162,0.020151133501259445,0.018891687657430732,0.017632241813602016,0.017632241813602016,0.015113350125944584,0.013853904282115869,0.020151133501259445,0.018891687657430732,0.021410579345088162,0.021410579345088162,0.0163727959697733,0.020151133501259445
S11_D12 hbo,0.018891687657430732,0.020151133501259445,0.021410579345088162,0.020151133501259445,0.020151133501259445,0.020151133501259445,0.021410579345088162,0.018891687657430732,0.018891687657430732,0.021410579345088162,0.021410579345088162,0.021410579345088162,0.021410579345088162,0.021410579345088162,0.021410579345088162,0.021410579345088162,0.018891687657430732,0.021410579345088162,0.021410579345088162,0.020151133501259445,0.021410579345088162,0.021410579345088162,0.017632241813602016,0.021410579345088162,0.021410579345088162,0.020151133501259445,0.021410579345088162,0.021410579345088162,0.021410579345088162,0.021410579345088162,0.021410579345088162,0.020151133501259445,0.021410579345088162,0.020151133501259445,0.020151133501259445,0.013853904282115869,0.018891687657430732,0.0,0.0,0.021410579345088162,0.020151133501259445,0.018891687657430732,0.017632241813602016,0.017632241813602016,0.015113350125944584,0.013853904282115869,0.020151133501259445,0.018891687657430732,0.021410579345088162,0.021410579345088162,0.0163727959697733,0.020151133501259445
S11_D13 hbo,0.020066889632107024,0.020066889632107024,0.020066889632107024,0.020066889632107024,0.020066889632107024,0.020066889632107024,0.020066889632107024,0.020066889632107024,0.020066889632107024,0.020066889632107024,0.020066889632107024,0.020066889632107024,0.020066889632107024,0.020066889632107024,0.020066889632107024,0.020066889632107024,0.020066889632107024,0.020066889632107024,0.020066889632107024,0.020066889632107024,0.020066889632107024,0.020066889632107024,0.020066889632107024,0.020066889632107024,0.020066889632107024,0.020066889632107024,0.020066889632107024,0.020066889632107024,0.020066889632107024,0.020066889632107024,0.020066889632107024,0.020066889632107024,0.020066889632107024,0.020066889632107024,0.020066889632107024,0.01839464882943144,0.020066889632107024,0.0,0.0,0.020066889632107024,0.020066889632107024,0.020066889632107024,0.020066889632107024,0.020066889632107024,0.020066889632107024,0.01839464882943144,0.020066889632107024,0.020066889632107024,0.020066889632107024,0.020066889632107024,0.020066889632107024,0.020066889632107024
S12_D10 hbo,0.01948051948051948,0.02077922077922078,0.02077922077922078,0.02077922077922078,0.02077922077922078,0.02077922077922078,0.02077922077922078,0.01948051948051948,0.01948051948051948,0.02077922077922078,0.02077922077922078,0.02077922077922078,0.02077922077922078,0.02077922077922078,0.02077922077922078,0.02077922077922078,0.01948051948051948,0.02077922077922078,0.02077922077922078,0.02077922077922078,0.02077922077922078,0.02077922077922078,0.01818181818181818,0.02077922077922078,0.02077922077922078,0.02077922077922078,0.02077922077922078,0.02077922077922078,0.02077922077922078,0.02077922077922078,0.02077922077922078,0.02077922077922078,0.02077922077922078,0.02077922077922078,0.02077922077922078,0.014285714285714285,0.01948051948051948,0.0,0.0,0.02077922077922078,0.02077922077922078,0.01948051948051948,0.01818181818181818,0.01818181818181818,0.015584415584415584,0.014285714285714285,0.02077922077922078,0.01948051948051948,0.02077922077922078,0.02077922077922078,0.016883116883116882,0.02077922077922078
S12_D12 hbo,0.0,0.0,0.0,0.0,0.0,0.0,0.0,0.0,0.0,0.0,0.0,0.0,0.0,0.0,0.0,0.0,0.0,0.0,0.0,0.0,0.0,0.0,0.0,0.0,0.0,0.0,0.0,0.0,0.0,0.0,0.0,0.0,0.0,0.0,0.0,0.0,0.0,0.0,0.0,0.0,0.0,0.0,0.0,0.0,0.0,0.0,0.0,0.0,0.0,0.0,0.0,0.0
S12_D14 hbo,0.0,0.0,0.0,0.0,0.0,0.0,0.0,0.0,0.0,0.0,0.0,0.0,0.0,0.0,0.0,0.0,0.0,0.0,0.0,0.0,0.0,0.0,0.0,0.0,0.0,0.0,0.0,0.0,0.0,0.0,0.0,0.0,0.0,0.0,0.0,0.0,0.0,0.0,0.0,0.0,0.0,0.0,0.0,0.0,0.0,0.0,0.0,0.0,0.0,0.0,0.0,0.0
S13_D6 hbo,0.01838235294117647,0.0196078431372549,0.020833333333333332,0.0196078431372549,0.0196078431372549,0.0196078431372549,0.020833333333333332,0.01838235294117647,0.01838235294117647,0.022058823529411766,0.022058823529411766,0.022058823529411766,0.022058823529411766,0.022058823529411766,0.020833333333333332,0.020833333333333332,0.01838235294117647,0.022058823529411766,0.024509803921568627,0.0196078431372549,0.020833333333333332,0.020833333333333332,0.01715686274509804,0.024509803921568627,0.023284313725490197,0.0196078431372549,0.020833333333333332,0.020833333333333332,0.022058823529411766,0.020833333333333332,0.022058823529411766,0.0196078431372549,0.024509803921568627,0.0196078431372549,0.0196078431372549,0.013480392156862746,0.01838235294117647,0.0,0.0,0.024509803921568627,0.0196078431372549,0.01838235294117647,0.01715686274509804,0.01715686274509804,0.014705882352941176,0.013480392156862746,0.0196078431372549,0.01838235294117647,0.020833333333333332,0.020833333333333332,0.015931372549019607,0.0196078431372549
S13_D11 hbo,0.018891687657430732,0.020151133501259445,0.021410579345088162,0.020151133501259445,0.020151133501259445,0.020151133501259445,0.021410579345088162,0.018891687657430732,0.018891687657430732,0.021410579345088162,0.021410579345088162,0.021410579345088162,0.021410579345088162,0.021410579345088162,0.021410579345088162,0.021410579345088162,0.018891687657430732,0.021410579345088162,0.021410579345088162,0.020151133501259445,0.021410579345088162,0.021410579345088162,0.017632241813602016,0.021410579345088162,0.021410579345088162,0.020151133501259445,0.021410579345088162,0.021410579345088162,0.021410579345088162,0.021410579345088162,0.021410579345088162,0.020151133501259445,0.021410579345088162,0.020151133501259445,0.020151133501259445,0.013853904282115869,0.018891687657430732,0.0,0.0,0.021410579345088162,0.020151133501259445,0.018891687657430732,0.017632241813602016,0.017632241813602016,0.015113350125944584,0.013853904282115869,0.020151133501259445,0.018891687657430732,0.021410579345088162,0.021410579345088162,0.0163727959697733,0.020151133501259445
S13_D13 hbo,0.01948051948051948,0.02077922077922078,0.02077922077922078,0.02077922077922078,0.02077922077922078,0.02077922077922078,0.02077922077922078,0.01948051948051948,0.01948051948051948,0.02077922077922078,0.02077922077922078,0.02077922077922078,0.02077922077922078,0.02077922077922078,0.02077922077922078,0.02077922077922078,0.01948051948051948,0.02077922077922078,0.02077922077922078,0.02077922077922078,0.02077922077922078,0.02077922077922078,0.01818181818181818,0.02077922077922078,0.02077922077922078,0.02077922077922078,0.02077922077922078,0.02077922077922078,0.02077922077922078,0.02077922077922078,0.02077922077922078,0.02077922077922078,0.02077922077922078,0.02077922077922078,0.02077922077922078,0.014285714285714285,0.01948051948051948,0.0,0.0,0.02077922077922078,0.02077922077922078,0.01948051948051948,0.01818181818181818,0.01818181818181818,0.015584415584415584,0.014285714285714285,0.02077922077922078,0.01948051948051948,0.02077922077922078,0.02077922077922078,0.016883116883116882,0.02077922077922078
S13_D15 hbo,0.020435967302452316,0.020435967302452316,0.020435967302452316,0.020435967302452316,0.020435967302452316,0.020435967302452316,0.020435967302452316,0.020435967302452316,0.020435967302452316,0.020435967302452316,0.020435967302452316,0.020435967302452316,0.020435967302452316,0.020435967302452316,0.020435967302452316,0.020435967302452316,0.020435967302452316,0.020435967302452316,0.020435967302452316,0.020435967302452316,0.020435967302452316,0.020435967302452316,0.01907356948228883,0.020435967302452316,0.020435967302452316,0.020435967302452316,0.020435967302452316,0.020435967302452316,0.020435967302452316,0.020435967302452316,0.020435967302452316,0.020435967302452316,0.020435967302452316,0.020435967302452316,0.020435967302452316,0.014986376021798364,0.020435967302452316,0.0,0.0,0.020435967302452316,0.020435967302452316,0.020435967302452316,0.01907356948228883,0.01907356948228883,0.01634877384196185,0.014986376021798364,0.020435967302452316,0.020435967302452316,0.020435967302452316,0.020435967302452316,0.017711171662125342,0.020435967302452316
S14_D12 hbo,0.020435967302452316,0.020435967302452316,0.020435967302452316,0.020435967302452316,0.020435967302452316,0.020435967302452316,0.020435967302452316,0.020435967302452316,0.020435967302452316,0.020435967302452316,0.020435967302452316,0.020435967302452316,0.020435967302452316,0.020435967302452316,0.020435967302452316,0.020435967302452316,0.020435967302452316,0.020435967302452316,0.020435967302452316,0.020435967302452316,0.020435967302452316,0.020435967302452316,0.01907356948228883,0.020435967302452316,0.020435967302452316,0.020435967302452316,0.020435967302452316,0.020435967302452316,0.020435967302452316,0.020435967302452316,0.020435967302452316,0.020435967302452316,0.020435967302452316,0.020435967302452316,0.020435967302452316,0.014986376021798364,0.020435967302452316,0.0,0.0,0.020435967302452316,0.020435967302452316,0.020435967302452316,0.01907356948228883,0.01907356948228883,0.01634877384196185,0.014986376021798364,0.020435967302452316,0.020435967302452316,0.020435967302452316,0.020435967302452316,0.017711171662125342,0.020435967302452316
S14_D13 hbo,0.020155038759689922,0.020155038759689922,0.020155038759689922,0.020155038759689922,0.020155038759689922,0.020155038759689922,0.020155038759689922,0.020155038759689922,0.020155038759689922,0.020155038759689922,0.020155038759689922,0.020155038759689922,0.020155038759689922,0.020155038759689922,0.020155038759689922,0.020155038759689922,0.020155038759689922,0.020155038759689922,0.020155038759689922,0.020155038759689922,0.020155038759689922,0.020155038759689922,0.020155038759689922,0.020155038759689922,0.020155038759689922,0.020155038759689922,0.020155038759689922,0.020155038759689922,0.020155038759689922,0.020155038759689922,0.020155038759689922,0.020155038759689922,0.020155038759689922,0.020155038759689922,0.020155038759689922,0.017054263565891473,0.020155038759689922,0.0,0.0,0.020155038759689922,0.020155038759689922,0.020155038759689922,0.020155038759689922,0.020155038759689922,0.018604651162790697,0.017054263565891473,0.020155038759689922,0.020155038759689922,0.020155038759689922,0.020155038759689922,0.020155038759689922,0.020155038759689922
S14_D14 hbo,0.020072992700729927,0.020072992700729927,0.020072992700729927,0.020072992700729927,0.020072992700729927,0.020072992700729927,0.020072992700729927,0.020072992700729927,0.020072992700729927,0.020072992700729927,0.020072992700729927,0.020072992700729927,0.020072992700729927,0.020072992700729927,0.020072992700729927,0.020072992700729927,0.020072992700729927,0.020072992700729927,0.020072992700729927,0.020072992700729927,0.020072992700729927,0.020072992700729927,0.020072992700729927,0.020072992700729927,0.020072992700729927,0.020072992700729927,0.020072992700729927,0.020072992700729927,0.020072992700729927,0.020072992700729927,0.020072992700729927,0.020072992700729927,0.020072992700729927,0.020072992700729927,0.020072992700729927,0.01824817518248175,0.020072992700729927,0.0,0.0,0.020072992700729927,0.020072992700729927,0.020072992700729927,0.020072992700729927,0.020072992700729927,0.020072992700729927,0.01824817518248175,0.020072992700729927,0.020072992700729927,0.020072992700729927,0.020072992700729927,0.020072992700729927,0.020072992700729927
S14_D16 hbo,0.018891687657430732,0.020151133501259445,0.021410579345088162,0.020151133501259445,0.020151133501259445,0.020151133501259445,0.021410579345088162,0.018891687657430732,0.018891687657430732,0.021410579345088162,0.021410579345088162,0.021410579345088162,0.021410579345088162,0.021410579345088162,0.021410579345088162,0.021410579345088162,0.018891687657430732,0.021410579345088162,0.021410579345088162,0.020151133501259445,0.021410579345088162,0.021410579345088162,0.017632241813602016,0.021410579345088162,0.021410579345088162,0.020151133501259445,0.021410579345088162,0.021410579345088162,0.021410579345088162,0.021410579345088162,0.021410579345088162,0.020151133501259445,0.021410579345088162,0.020151133501259445,0.020151133501259445,0.013853904282115869,0.018891687657430732,0.0,0.0,0.021410579345088162,0.020151133501259445,0.018891687657430732,0.017632241813602016,0.017632241813602016,0.015113350125944584,0.013853904282115869,0.020151133501259445,0.018891687657430732,0.021410579345088162,0.021410579345088162,0.0163727959697733,0.020151133501259445
S15_D13 hbo,0.01948051948051948,0.02077922077922078,0.02077922077922078,0.02077922077922078,0.02077922077922078,0.02077922077922078,0.02077922077922078,0.01948051948051948,0.01948051948051948,0.02077922077922078,0.02077922077922078,0.02077922077922078,0.02077922077922078,0.02077922077922078,0.02077922077922078,0.02077922077922078,0.01948051948051948,0.02077922077922078,0.02077922077922078,0.02077922077922078,0.02077922077922078,0.02077922077922078,0.01818181818181818,0.02077922077922078,0.02077922077922078,0.02077922077922078,0.02077922077922078,0.02077922077922078,0.02077922077922078,0.02077922077922078,0.02077922077922078,0.02077922077922078,0.02077922077922078,0.02077922077922078,0.02077922077922078,0.014285714285714285,0.01948051948051948,0.0,0.0,0.02077922077922078,0.02077922077922078,0.01948051948051948,0.01818181818181818,0.01818181818181818,0.015584415584415584,0.014285714285714285,0.02077922077922078,0.01948051948051948,0.02077922077922078,0.02077922077922078,0.016883116883116882,0.02077922077922078
S15_D15 hbo,0.01858736059479554,0.01982651796778191,0.021065675340768277,0.01982651796778191,0.01982651796778191,0.01982651796778191,0.021065675340768277,0.01858736059479554,0.01858736059479554,0.022304832713754646,0.022304832713754646,0.022304832713754646,0.022304832713754646,0.022304832713754646,0.021065675340768277,0.021065675340768277,0.01858736059479554,0.022304832713754646,0.022304832713754646,0.01982651796778191,0.021065675340768277,0.021065675340768277,0.01734820322180917,0.022304832713754646,0.022304832713754646,0.01982651796778191,0.021065675340768277,0.021065675340768277,0.022304832713754646,0.021065675340768277,0.022304832713754646,0.01982651796778191,0.022304832713754646,0.01982651796778191,0.01982651796778191,0.013630731102850062,0.01858736059479554,0.0,0.0,0.022304832713754646,0.01982651796778191,0.01858736059479554,0.01734820322180917,0.01734820322180917,0.01486988847583643,0.013630731102850062,0.01982651796778191,0.01858736059479554,0.021065675340768277,0.021065675340768277,0.0161090458488228,0.01982651796778191
S15_D16 hbo,0.01858736059479554,0.01982651796778191,0.021065675340768277,0.01982651796778191,0.01982651796778191,0.01982651796778191,0.021065675340768277,0.01858736059479554,0.01858736059479554,0.022304832713754646,0.022304832713754646,0.022304832713754646,0.022304832713754646,0.022304832713754646,0.021065675340768277,0.021065675340768277,0.01858736059479554,0.022304832713754646,0.022304832713754646,0.01982651796778191,0.021065675340768277,0.021065675340768277,0.01734820322180917,0.022304832713754646,0.022304832713754646,0.01982651796778191,0.021065675340768277,0.021065675340768277,0.022304832713754646,0.021065675340768277,0.022304832713754646,0.01982651796778191,0.022304832713754646,0.01982651796778191,0.01982651796778191,0.013630731102850062,0.01858736059479554,0.0,0.0,0.022304832713754646,0.01982651796778191,0.01858736059479554,0.01734820322180917,0.01734820322180917,0.01486988847583643,0.013630731102850062,0.01982651796778191,0.01858736059479554,0.021065675340768277,0.021065675340768277,0.0161090458488228,0.01982651796778191
S16_D14 hbo,0.020260492040520984,0.020260492040520984,0.020260492040520984,0.020260492040520984,0.020260492040520984,0.020260492040520984,0.020260492040520984,0.020260492040520984,0.020260492040520984,0.020260492040520984,0.020260492040520984,0.020260492040520984,0.020260492040520984,0.020260492040520984,0.020260492040520984,0.020260492040520984,0.020260492040520984,0.020260492040520984,0.020260492040520984,0.020260492040520984,0.020260492040520984,0.020260492040520984,0.020260492040520984,0.020260492040520984,0.020260492040520984,0.020260492040520984,0.020260492040520984,0.020260492040520984,0.020260492040520984,0.020260492040520984,0.020260492040520984,0.020260492040520984,0.020260492040520984,0.020260492040520984,0.020260492040520984,0.015918958031837915,0.020260492040520984,0.0,0.0,0.020260492040520984,0.020260492040520984,0.020260492040520984,0.020260492040520984,0.020260492040520984,0.017366136034732273,0.015918958031837915,0.020260492040520984,0.020260492040520984,0.020260492040520984,0.020260492040520984,0.01881331403762663,0.020260492040520984
S16_D16 hbo,0.018891687657430732,0.020151133501259445,0.021410579345088162,0.020151133501259445,0.020151133501259445,0.020151133501259445,0.021410579345088162,0.018891687657430732,0.018891687657430732,0.021410579345088162,0.021410579345088162,0.021410579345088162,0.021410579345088162,0.021410579345088162,0.021410579345088162,0.021410579345088162,0.018891687657430732,0.021410579345088162,0.021410579345088162,0.020151133501259445,0.021410579345088162,0.021410579345088162,0.017632241813602016,0.021410579345088162,0.021410579345088162,0.020151133501259445,0.021410579345088162,0.021410579345088162,0.021410579345088162,0.021410579345088162,0.021410579345088162,0.020151133501259445,0.021410579345088162,0.020151133501259445,0.020151133501259445,0.013853904282115869,0.018891687657430732,0.0,0.0,0.021410579345088162,0.020151133501259445,0.018891687657430732,0.017632241813602016,0.017632241813602016,0.015113350125944584,0.013853904282115869,0.020151133501259445,0.018891687657430732,0.021410579345088162,0.021410579345088162,0.0163727959697733,0.020151133501259445
