,S1_D1 hbo,S1_D3 hbo,S2_D1 hbo,S2_D2 hbo,S2_D4 hbo,S3_D1 hbo,S3_D3 hbo,S3_D4 hbo,S3_D5 hbo,S4_D2 hbo,S4_D4 hbo,S4_D6 hbo,S4_D11 hbo,S5_D3 hbo,S5_D5 hbo,S5_D7 hbo,S6_D4 hbo,S6_D5 hbo,S6_D6 hbo,S6_D8 hbo,S7_D5 hbo,S7_D7 hbo,S7_D8 hbo,S8_D6 hbo,S8_D8 hbo,S8_D15 hbo,S9_D2 hbo,S9_D9 hbo,S9_D11 hbo,S10_D9 hbo,S10_D10 hbo,S10_D12 hbo,S11_D9 hbo,S11_D11 hbo,S11_D12 hbo,S11_D13 hbo,S12_D10 hbo,S12_D12 hbo,S12_D14 hbo,S13_D6 hbo,S13_D11 hbo,S13_D13 hbo,S13_D15 hbo,S14_D12 hbo,S14_D13 hbo,S14_D14 hbo,S14_D16 hbo,S15_D13 hbo,S15_D15 hbo,S15_D16 hbo,S16_D14 hbo,S16_D16 hbo
S1_D1 hbo,0.18446601941747573,0.009708737864077669,0.04854368932038835,0.0,0.0,0.043689320388349516,0.06796116504854369,0.0,0.0,0.0,0.0,0.024271844660194174,0.0,0.038834951456310676,0.038834951456310676,0.04854368932038835,0.024271844660194174,0.009708737864077669,0.02912621359223301,0.009708737864077669,0.0,0.0,0.0,0.024271844660194174,0.0,0.043689320388349516,0.0,0.014563106796116505,0.0,0.0,0.043689320388349516,0.0,0.0,0.009708737864077669,0.0,0.009708737864077669,0.02912621359223301,0.03398058252427184,0.03398058252427184,0.019417475728155338,0.019417475728155338,0.019417475728155338,0.03398058252427184,0.0,0.009708737864077669,0.014563106796116505,0.009708737864077669,0.019417475728155338,0.009708737864077669,0.014563106796116505,0.009708737864077669,0.0
S1_D3 hbo,0.0,0.08875739644970414,0.0,0.023668639053254437,0.05029585798816568,0.023668639053254437,0.011834319526627219,0.038461538461538464,0.04142011834319527,0.026627218934911243,0.020710059171597635,0.0029585798816568047,0.020710059171597635,0.008875739644970414,0.008875739644970414,0.005917159763313609,0.026627218934911243,0.023668639053254437,0.0,0.04437869822485207,0.008875739644970414,0.0,0.008875739644970414,0.0,0.03254437869822485,0.0,0.05621301775147929,0.011834319526627219,0.014792899408284023,0.014792899408284023,0.0029585798816568047,0.047337278106508875,0.038461538461538464,0.005917159763313609,0.04142011834319527,0.005917159763313609,0.0,0.0,0.029585798816568046,0.020710059171597635,0.01775147928994083,0.0,0.0,0.03254437869822485,0.005917159763313609,0.01775147928994083,0.008875739644970414,0.0,0.005917159763313609,0.029585798816568046,0.03254437869822485,0.04142011834319527
S2_D1 hbo,0.032362459546925564,0.012944983818770227,0.11003236245954692,0.0,0.003236245954692557,0.045307443365695796,0.0,0.0,0.0,0.006472491909385114,0.0,0.012944983818770227,0.0,0.07766990291262135,0.07766990291262135,0.08414239482200647,0.012944983818770227,0.012944983818770227,0.012944983818770227,0.012944983818770227,0.0,0.0,0.022653721682847898,0.012944983818770227,0.0,0.016181229773462782,0.003236245954692557,0.045307443365695796,0.045307443365695796,0.025889967637540454,0.0,0.006472491909385114,0.003236245954692557,0.032362459546925564,0.0,0.003236245954692557,0.04854368932038835,0.0,0.0,0.019417475728155338,0.022653721682847898,0.022653721682847898,0.02912621359223301,0.0,0.022653721682847898,0.009708737864077669,0.022653721682847898,0.02912621359223301,0.02912621359223301,0.012944983818770227,0.0,0.0
S2_D2 hbo,0.0,0.01238390092879257,0.0030959752321981426,0.08668730650154799,0.02786377708978328,0.0,0.006191950464396285,0.018575851393188854,0.02476780185758514,0.0030959752321981426,0.02786377708978328,0.0030959752321981426,0.02476780185758514,0.02786377708978328,0.018575851393188854,0.009287925696594427,0.01238390092879257,0.01238390092879257,0.0,0.015479876160990712,0.0,0.0,0.0,0.015479876160990712,0.02786377708978328,0.0,0.030959752321981424,0.043343653250773995,0.009287925696594427,0.030959752321981424,0.0,0.01238390092879257,0.021671826625386997,0.034055727554179564,0.018575851393188854,0.04024767801857585,0.009287925696594427,0.0,0.009287925696594427,0.03715170278637771,0.021671826625386997,0.02786377708978328,0.015479876160990712,0.021671826625386997,0.021671826625386997,0.05572755417956656,0.02476780185758514,0.01238390092879257,0.034055727554179564,0.02786377708978328,0.04024767801857585,0.021671826625386997
S2_D4 hbo,0.0,0.021611001964636542,0.0,0.0275049115913556,0.060903732809430254,0.005893909626719057,0.005893909626719057,0.04518664047151277,0.03339882121807466,0.0275049115913556,0.0412573673870334,0.01768172888015717,0.025540275049115914,0.005893909626719057,0.005893909626719057,0.003929273084479371,0.03732809430255403,0.03732809430255403,0.015717092337917484,0.03536345776031434,0.0,0.0,0.0019646365422396855,0.01768172888015717,0.029469548133595286,0.009823182711198428,0.05108055009823183,0.009823182711198428,0.015717092337917484,0.01768172888015717,0.003929273084479371,0.025540275049115914,0.029469548133595286,0.005893909626719057,0.029469548133595286,0.0137524557956778,0.0,0.007858546168958742,0.0275049115913556,0.03143418467583497,0.029469548133595286,0.0019646365422396855,0.009823182711198428,0.029469548133595286,0.015717092337917484,0.0137524557956778,0.009823182711198428,0.0137524557956778,0.019646365422396856,0.023575638506876228,0.023575638506876228,0.0275049115913556
S3_D1 hbo,0.041916167664670656,0.0718562874251497,0.04790419161676647,0.0,0.029940119760479042,0.1377245508982036,0.0,0.03592814371257485,0.041916167664670656,0.041916167664670656,0.011976047904191617,0.0,0.0,0.029940119760479042,0.029940119760479042,0.041916167664670656,0.023952095808383235,0.023952095808383235,0.0,0.04790419161676647,0.0,0.0,0.023952095808383235,0.0,0.011976047904191617,0.0,0.03592814371257485,0.0,0.03592814371257485,0.0,0.0,0.059880239520958084,0.03592814371257485,0.0,0.041916167664670656,0.0,0.017964071856287425,0.0,0.023952095808383235,0.0,0.0,0.0,0.0,0.023952095808383235,0.0,0.0,0.0,0.0,0.0,0.005988023952095809,0.005988023952095809,0.017964071856287425
S3_D3 hbo,0.05157593123209169,0.017191977077363897,0.0,0.014326647564469915,0.014326647564469915,0.0,0.08022922636103152,0.0028653295128939827,0.0028653295128939827,0.0028653295128939827,0.0028653295128939827,0.03151862464183381,0.025787965616045846,0.0057306590257879654,0.0028653295128939827,0.0,0.014326647564469915,0.02005730659025788,0.025787965616045846,0.0057306590257879654,0.0,0.0,0.0,0.017191977077363897,0.02865329512893983,0.02865329512893983,0.025787965616045846,0.0057306590257879654,0.0028653295128939827,0.014326647564469915,0.04297994269340974,0.0,0.0,0.011461318051575931,0.0,0.022922636103151862,0.0,0.022922636103151862,0.03151862464183381,0.04871060171919771,0.045845272206303724,0.022922636103151862,0.025787965616045846,0.0,0.02005730659025788,0.05157593123209169,0.03724928366762178,0.02865329512893983,0.025787965616045846,0.04011461318051576,0.04871060171919771,0.02865329512893983
S3_D4 hbo,0.0,0.020361990950226245,0.0,0.02262443438914027,0.04524886877828054,0.006787330316742082,0.0022624434389140274,0.05429864253393665,0.04751131221719457,0.033936651583710405,0.05203619909502263,0.01809954751131222,0.01809954751131222,0.0,0.0,0.0,0.04072398190045249,0.033936651583710405,0.01809954751131222,0.042986425339366516,0.0,0.0,0.0022624434389140274,0.020361990950226245,0.029411764705882353,0.00904977375565611,0.05203619909502263,0.0,0.01583710407239819,0.0,0.006787330316742082,0.033936651583710405,0.04072398190045249,0.0,0.038461538461538464,0.020361990950226245,0.0,0.011312217194570135,0.033936651583710405,0.01583710407239819,0.011312217194570135,0.0,0.011312217194570135,0.042986425339366516,0.01809954751131222,0.011312217194570135,0.011312217194570135,0.00904977375565611,0.013574660633484163,0.029411764705882353,0.020361990950226245,0.033936651583710405
S3_D5 hbo,0.0,0.027777777777777776,0.0,0.03333333333333333,0.03888888888888889,0.008333333333333333,0.0,0.05277777777777778,0.058333333333333334,0.027777777777777776,0.05,0.005555555555555556,0.005555555555555556,0.0,0.0,0.0,0.03611111111111111,0.030555555555555555,0.005555555555555556,0.04722222222222222,0.0,0.0,0.002777777777777778,0.011111111111111112,0.030555555555555555,0.0,0.04722222222222222,0.0,0.008333333333333333,0.0,0.005555555555555556,0.044444444444444446,0.05,0.002777777777777778,0.05,0.030555555555555555,0.0,0.005555555555555556,0.03333333333333333,0.005555555555555556,0.0,0.002777777777777778,0.005555555555555556,0.05555555555555555,0.019444444444444445,0.016666666666666666,0.016666666666666666,0.008333333333333333,0.011111111111111112,0.03888888888888889,0.027777777777777776,0.041666666666666664
S4_D2 hbo,0.0,0.030405405405405407,0.0,0.010135135135135136,0.04391891891891892,0.016891891891891893,0.0033783783783783786,0.05067567567567568,0.04054054054054054,0.060810810810810814,0.0472972972972973,0.02027027027027027,0.02702702702702703,0.0,0.0,0.0,0.037162162162162164,0.033783783783783786,0.02027027027027027,0.033783783783783786,0.0,0.0,0.010135135135135136,0.013513513513513514,0.037162162162162164,0.006756756756756757,0.06418918918918919,0.0,0.02364864864864865,0.0,0.02364864864864865,0.033783783783783786,0.037162162162162164,0.0,0.033783783783783786,0.010135135135135136,0.0,0.030405405405405407,0.057432432432432436,0.016891891891891893,0.010135135135135136,0.0,0.006756756756756757,0.033783783783783786,0.006756756756756757,0.0033783783783783786,0.0033783783783783786,0.0,0.0033783783783783786,0.016891891891891893,0.016891891891891893,0.02364864864864865
S4_D4 hbo,0.0,0.009950248756218905,0.0,0.03233830845771144,0.03731343283582089,0.0,0.0024875621890547263,0.04477611940298507,0.03731343283582089,0.03482587064676617,0.05721393034825871,0.01990049751243781,0.024875621890547265,0.0,0.0,0.0,0.03482587064676617,0.029850746268656716,0.01990049751243781,0.03233830845771144,0.0,0.0,0.0,0.02736318407960199,0.03233830845771144,0.009950248756218905,0.04975124378109453,0.0024875621890547263,0.009950248756218905,0.0,0.012437810945273632,0.022388059701492536,0.029850746268656716,0.004975124378109453,0.02736318407960199,0.029850746268656716,0.0,0.017412935323383085,0.03482587064676617,0.022388059701492536,0.012437810945273632,0.004975124378109453,0.017412935323383085,0.03482587064676617,0.024875621890547265,0.017412935323383085,0.017412935323383085,0.014925373134328358,0.01990049751243781,0.03233830845771144,0.02736318407960199,0.024875621890547265
S4_D6 hbo,0.01639344262295082,0.00234192037470726,0.00702576112412178,0.00234192037470726,0.02107728337236534,0.0,0.03044496487119438,0.01873536299765808,0.00468384074941452,0.01873536299765808,0.0234192037470726,0.05152224824355972,0.03044496487119438,0.00234192037470726,0.00468384074941452,0.0,0.0351288056206089,0.03044496487119438,0.04918032786885246,0.0234192037470726,0.0,0.0,0.0,0.03747072599531616,0.02107728337236534,0.03981264637002342,0.03278688524590164,0.01405152224824356,0.02107728337236534,0.00468384074941452,0.01639344262295082,0.0,0.0,0.01639344262295082,0.0,0.01639344262295082,0.0,0.02810304449648712,0.0234192037470726,0.0468384074941452,0.0468384074941452,0.01639344262295082,0.03981264637002342,0.00468384074941452,0.03044496487119438,0.02107728337236534,0.02810304449648712,0.0351288056206089,0.0351288056206089,0.02576112412177986,0.01873536299765808,0.00702576112412178
S4_D11 hbo,0.0,0.017793594306049824,0.0,0.03558718861209965,0.03914590747330961,0.0,0.021352313167259787,0.021352313167259787,0.0071174377224199285,0.03558718861209965,0.028469750889679714,0.03202846975088968,0.07473309608540925,0.017793594306049824,0.010676156583629894,0.0071174377224199285,0.014234875444839857,0.010676156583629894,0.02491103202846975,0.0071174377224199285,0.0,0.0,0.0,0.017793594306049824,0.0498220640569395,0.010676156583629894,0.06405693950177936,0.014234875444839857,0.021352313167259787,0.03558718861209965,0.021352313167259787,0.0,0.0,0.014234875444839857,0.0,0.0071174377224199285,0.0,0.028469750889679714,0.03202846975088968,0.060498220640569395,0.0498220640569395,0.014234875444839857,0.010676156583629894,0.0071174377224199285,0.0071174377224199285,0.03202846975088968,0.010676156583629894,0.0071174377224199285,0.021352313167259787,0.010676156583629894,0.03558718861209965,0.010676156583629894
S5_D3 hbo,0.038314176245210725,0.007662835249042145,0.10727969348659004,0.019157088122605363,0.011494252873563218,0.03065134099616858,0.0,0.0,0.0,0.0,0.0,0.0,0.011494252873563218,0.13026819923371646,0.10344827586206896,0.10344827586206896,0.0,0.0,0.0,0.0,0.0,0.0,0.007662835249042145,0.0,0.007662835249042145,0.0038314176245210726,0.011494252873563218,0.05363984674329502,0.022988505747126436,0.04980842911877394,0.0,0.0,0.0,0.02681992337164751,0.0,0.0,0.07279693486590039,0.0,0.0,0.03065134099616858,0.022988505747126436,0.03065134099616858,0.01532567049808429,0.0,0.007662835249042145,0.019157088122605363,0.007662835249042145,0.01532567049808429,0.019157088122605363,0.0,0.011494252873563218,0.0
S5_D5 hbo,0.033444816053511704,0.0033444816053511705,0.09698996655518395,0.010033444816053512,0.006688963210702341,0.026755852842809364,0.0,0.0,0.0,0.0,0.0,0.010033444816053512,0.010033444816053512,0.08361204013377926,0.10033444816053512,0.10367892976588629,0.010033444816053512,0.010033444816053512,0.010033444816053512,0.010033444816053512,0.0,0.0,0.006688963210702341,0.010033444816053512,0.0,0.013377926421404682,0.006688963210702341,0.056856187290969896,0.026755852842809364,0.03678929765886288,0.0,0.0,0.0,0.03678929765886288,0.0,0.0033444816053511705,0.05351170568561873,0.0,0.0,0.023411371237458192,0.023411371237458192,0.030100334448160536,0.026755852842809364,0.0,0.020066889632107024,0.010033444816053512,0.020066889632107024,0.026755852842809364,0.030100334448160536,0.010033444816053512,0.0033444816053511705,0.0
S5_D7 hbo,0.04854368932038835,0.009708737864077669,0.1262135922330097,0.009708737864077669,0.0048543689320388345,0.04854368932038835,0.0,0.0,0.0,0.0,0.0,0.0,0.009708737864077669,0.10194174757281553,0.11650485436893204,0.14563106796116504,0.0,0.0,0.0,0.0,0.0,0.0,0.019417475728155338,0.0,0.0,0.0048543689320388345,0.0048543689320388345,0.04854368932038835,0.02912621359223301,0.043689320388349516,0.0,0.0,0.0,0.024271844660194174,0.0,0.0,0.05825242718446602,0.0,0.0,0.019417475728155338,0.009708737864077669,0.02912621359223301,0.019417475728155338,0.0,0.009708737864077669,0.009708737864077669,0.009708737864077669,0.019417475728155338,0.019417475728155338,0.0,0.0,0.0
S6_D4 hbo,0.009487666034155597,0.011385199240986717,0.007590132827324478,0.015180265654648957,0.036053130929791274,0.003795066413662239,0.011385199240986717,0.036053130929791274,0.026565464895635674,0.022770398481973434,0.036053130929791274,0.028462998102466792,0.011385199240986717,0.0,0.0056925996204933585,0.0,0.051233396584440226,0.036053130929791274,0.030360531309297913,0.04174573055028463,0.0,0.0,0.0,0.036053130929791274,0.020872865275142316,0.030360531309297913,0.03225806451612903,0.011385199240986717,0.024667931688804556,0.0,0.0018975332068311196,0.020872865275142316,0.022770398481973434,0.011385199240986717,0.022770398481973434,0.013282732447817837,0.0,0.015180265654648957,0.03225806451612903,0.020872865275142316,0.024667931688804556,0.0,0.03225806451612903,0.024667931688804556,0.024667931688804556,0.011385199240986717,0.022770398481973434,0.024667931688804556,0.024667931688804556,0.03225806451612903,0.017077798861480076,0.022770398481973434
S6_D5 hbo,0.007079646017699115,0.010619469026548672,0.0035398230088495575,0.010619469026548672,0.033628318584070796,0.0035398230088495575,0.01592920353982301,0.02831858407079646,0.019469026548672566,0.017699115044247787,0.02831858407079646,0.02654867256637168,0.008849557522123894,0.0,0.0017699115044247787,0.0,0.03716814159292035,0.061946902654867256,0.024778761061946902,0.033628318584070796,0.0,0.0,0.0,0.02654867256637168,0.017699115044247787,0.023008849557522124,0.024778761061946902,0.007079646017699115,0.017699115044247787,0.01415929203539823,0.008849557522123894,0.01592920353982301,0.017699115044247787,0.007079646017699115,0.017699115044247787,0.021238938053097345,0.0,0.008849557522123894,0.021238938053097345,0.03185840707964602,0.02831858407079646,0.01592920353982301,0.024778761061946902,0.019469026548672566,0.03185840707964602,0.023008849557522124,0.02831858407079646,0.04424778761061947,0.03893805309734513,0.035398230088495575,0.02831858407079646,0.02654867256637168
S6_D6 hbo,0.022792022792022793,0.0,0.008547008547008548,0.0,0.022792022792022793,0.0,0.02564102564102564,0.022792022792022793,0.005698005698005698,0.022792022792022793,0.02849002849002849,0.05413105413105413,0.02564102564102564,0.0,0.005698005698005698,0.0,0.042735042735042736,0.03418803418803419,0.05698005698005698,0.02849002849002849,0.0,0.0,0.0,0.045584045584045586,0.014245014245014245,0.04843304843304843,0.02849002849002849,0.014245014245014245,0.02564102564102564,0.0,0.017094017094017096,0.0,0.0,0.014245014245014245,0.0,0.008547008547008548,0.0,0.037037037037037035,0.03133903133903134,0.042735042735042736,0.042735042735042736,0.008547008547008548,0.04843304843304843,0.005698005698005698,0.02849002849002849,0.011396011396011397,0.022792022792022793,0.03418803418803419,0.03133903133903134,0.022792022792022793,0.008547008547008548,0.0
S6_D8 hbo,0.003616636528028933,0.019891500904159132,0.007233273056057866,0.0162748643761302,0.03616636528028933,0.007233273056057866,0.003616636528028933,0.04159132007233273,0.03616636528028933,0.019891500904159132,0.034358047016274866,0.0216998191681736,0.007233273056057866,0.0,0.0054249547920434,0.0,0.04701627486437613,0.0379746835443038,0.0216998191681736,0.05244122965641953,0.0,0.0,0.0018083182640144665,0.028933092224231464,0.0162748643761302,0.023508137432188065,0.034358047016274866,0.0108499095840868,0.02531645569620253,0.0,0.0,0.03074141048824593,0.03074141048824593,0.0108499095840868,0.034358047016274866,0.0162748643761302,0.0,0.0054249547920434,0.0216998191681736,0.0162748643761302,0.0216998191681736,0.0018083182640144665,0.02531645569620253,0.0325497287522604,0.02531645569620253,0.012658227848101266,0.023508137432188065,0.023508137432188065,0.02531645569620253,0.03616636528028933,0.018083182640144666,0.027124773960216998
S7_D5 hbo,0.0,0.05714285714285714,0.0,0.0,0.0,0.0,0.0,0.0,0.0,0.0,0.0,0.0,0.0,0.0,0.0,0.0,0.0,0.0,0.0,0.0,0.5285714285714286,0.0,0.07142857142857142,0.0,0.0,0.0,0.0,0.0,0.0,0.08571428571428572,0.02857142857142857,0.0,0.04285714285714286,0.04285714285714286,0.0,0.04285714285714286,0.0,0.0,0.0,0.0,0.02857142857142857,0.02857142857142857,0.0,0.0,0.0,0.04285714285714286,0.0,0.0,0.0,0.0,0.0,0.0
S7_D7 hbo,0.0,0.0,0.0,0.0,0.0,0.0,0.0,0.0,0.0,0.0,0.0,0.0,0.0,0.0,0.0,0.0,0.0,0.0,0.0,0.0,0.0,0.8260869565217391,0.17391304347826086,0.0,0.0,0.0,0.0,0.0,0.0,0.0,0.0,0.0,0.0,0.0,0.0,0.0,0.0,0.0,0.0,0.0,0.0,0.0,0.0,0.0,0.0,0.0,0.0,0.0,0.0,0.0,0.0,0.0
S7_D8 hbo,0.0,0.0390625,0.0390625,0.0,0.0234375,0.046875,0.0,0.0234375,0.0234375,0.0390625,0.0,0.0,0.0,0.0,0.0,0.015625,0.015625,0.015625,0.0,0.0234375,0.0390625,0.0078125,0.1796875,0.0,0.0,0.0,0.03125,0.0,0.0625,0.046875,0.0,0.0390625,0.0625,0.046875,0.0234375,0.0390625,0.0,0.0,0.015625,0.0,0.0234375,0.0234375,0.0,0.0078125,0.0,0.0390625,0.0,0.0,0.0,0.0,0.0,0.0078125
S8_D6 hbo,0.013227513227513227,0.0,0.010582010582010581,0.013227513227513227,0.021164021164021163,0.0,0.015873015873015872,0.023809523809523808,0.010582010582010581,0.015873015873015872,0.0291005291005291,0.04497354497354497,0.018518518518518517,0.0,0.007936507936507936,0.0,0.04497354497354497,0.0291005291005291,0.047619047619047616,0.0291005291005291,0.0,0.0,0.0,0.05291005291005291,0.010582010582010581,0.03968253968253968,0.021164021164021163,0.021164021164021163,0.026455026455026454,0.0,0.005291005291005291,0.0,0.0026455026455026454,0.023809523809523808,0.0026455026455026454,0.015873015873015872,0.0,0.023809523809523808,0.021164021164021163,0.042328042328042326,0.037037037037037035,0.010582010582010581,0.05026455026455026,0.007936507936507936,0.031746031746031744,0.018518518518518517,0.031746031746031744,0.03968253968253968,0.03968253968253968,0.0291005291005291,0.013227513227513227,0.005291005291005291
S8_D8 hbo,0.0,0.0228310502283105,0.0,0.03424657534246575,0.02968036529680365,0.0,0.01598173515981735,0.0228310502283105,0.02511415525114155,0.02054794520547945,0.02968036529680365,0.01598173515981735,0.0365296803652968,0.0136986301369863,0.0045662100456621,0.00228310502283105,0.0182648401826484,0.0182648401826484,0.00684931506849315,0.0182648401826484,0.0,0.0,0.0,0.0091324200913242,0.0639269406392694,0.0,0.04794520547945205,0.00684931506849315,0.0091324200913242,0.02054794520547945,0.01598173515981735,0.01598173515981735,0.0182648401826484,0.0091324200913242,0.0182648401826484,0.02511415525114155,0.0,0.01141552511415525,0.0319634703196347,0.0365296803652968,0.0319634703196347,0.01598173515981735,0.00228310502283105,0.02511415525114155,0.0228310502283105,0.04337899543378995,0.0273972602739726,0.0136986301369863,0.01598173515981735,0.0365296803652968,0.05251141552511415,0.0365296803652968
S8_D15 hbo,0.028985507246376812,0.0,0.014492753623188406,0.0,0.020289855072463767,0.0,0.02608695652173913,0.017391304347826087,0.0,0.011594202898550725,0.017391304347826087,0.04927536231884058,0.014492753623188406,0.002898550724637681,0.011594202898550725,0.002898550724637681,0.05217391304347826,0.034782608695652174,0.05217391304347826,0.03768115942028986,0.0,0.0,0.0,0.04927536231884058,0.002898550724637681,0.06086956521739131,0.017391304347826087,0.020289855072463767,0.03188405797101449,0.002898550724637681,0.005797101449275362,0.0,0.0,0.017391304347826087,0.0,0.008695652173913044,0.0,0.02608695652173913,0.02318840579710145,0.03768115942028986,0.0463768115942029,0.008695652173913044,0.057971014492753624,0.0,0.028985507246376812,0.011594202898550725,0.03188405797101449,0.04057971014492753,0.04057971014492753,0.02608695652173913,0.008695652173913044,0.0
S9_D2 hbo,0.0,0.023255813953488372,0.0,0.03220035778175313,0.046511627906976744,0.007155635062611807,0.01073345259391771,0.03935599284436494,0.03220035778175313,0.03398926654740608,0.03935599284436494,0.017889087656529516,0.03756708407871199,0.007155635062611807,0.005366726296958855,0.0035778175313059034,0.03041144901610018,0.025044722719141325,0.014311270125223614,0.03041144901610018,0.0,0.0,0.0035778175313059034,0.012522361359570662,0.03756708407871199,0.007155635062611807,0.06082289803220036,0.007155635062611807,0.017889087656529516,0.016100178890876567,0.01073345259391771,0.025044722719141325,0.028622540250447227,0.007155635062611807,0.026833631484794274,0.017889087656529516,0.0,0.014311270125223614,0.03398926654740608,0.03041144901610018,0.025044722719141325,0.007155635062611807,0.007155635062611807,0.026833631484794274,0.012522361359570662,0.01967799642218247,0.01073345259391771,0.005366726296958855,0.014311270125223614,0.023255813953488372,0.028622540250447227,0.025044722719141325
S9_D9 hbo,0.013262599469496022,0.005305039787798408,0.04509283819628647,0.026525198938992044,0.015915119363395226,0.007957559681697613,0.0,0.005305039787798408,0.0,0.0,0.005305039787798408,0.015915119363395226,0.013262599469496022,0.042440318302387266,0.05305039787798409,0.03713527851458886,0.015915119363395226,0.015915119363395226,0.015915119363395226,0.015915119363395226,0.0,0.0,0.0,0.015915119363395226,0.002652519893899204,0.01856763925729443,0.013262599469496022,0.09283819628647215,0.03183023872679045,0.034482758620689655,0.0,0.0,0.0,0.05305039787798409,0.0,0.013262599469496022,0.042440318302387266,0.0,0.0,0.03978779840848806,0.034482758620689655,0.042440318302387266,0.034482758620689655,0.0,0.029177718832891247,0.026525198938992044,0.029177718832891247,0.034482758620689655,0.04509283819628647,0.010610079575596816,0.005305039787798408,0.0
S9_D11 hbo,0.0,0.016203703703703703,0.032407407407407406,0.006944444444444444,0.027777777777777776,0.016203703703703703,0.0023148148148148147,0.02546296296296296,0.011574074074074073,0.02546296296296296,0.018518518518518517,0.02546296296296296,0.013888888888888888,0.023148148148148147,0.023148148148148147,0.016203703703703703,0.034722222222222224,0.03009259259259259,0.02546296296296296,0.032407407407407406,0.0,0.0,0.013888888888888888,0.02546296296296296,0.011574074074074073,0.02546296296296296,0.027777777777777776,0.027777777777777776,0.06018518518518518,0.023148148148148147,0.0,0.016203703703703703,0.013888888888888888,0.023148148148148147,0.011574074074074073,0.0023148148148148147,0.013888888888888888,0.004629629629629629,0.013888888888888888,0.034722222222222224,0.03935185185185185,0.013888888888888888,0.034722222222222224,0.006944444444444444,0.023148148148148147,0.013888888888888888,0.020833333333333332,0.03009259259259259,0.032407407407407406,0.013888888888888888,0.006944444444444444,0.006944444444444444
S10_D9 hbo,0.0,0.009345794392523364,0.037383177570093455,0.028037383177570093,0.021806853582554516,0.003115264797507788,0.003115264797507788,0.0,0.0,0.0,0.0,0.0,0.024922118380062305,0.04984423676012461,0.04361370716510903,0.037383177570093455,0.0,0.018691588785046728,0.0,0.0,0.018691588785046728,0.0,0.012461059190031152,0.0,0.01557632398753894,0.003115264797507788,0.01557632398753894,0.040498442367601244,0.03115264797507788,0.11214953271028037,0.0,0.0,0.012461059190031152,0.04672897196261682,0.0,0.028037383177570093,0.024922118380062305,0.0,0.0,0.0529595015576324,0.04984423676012461,0.0529595015576324,0.01557632398753894,0.0,0.01557632398753894,0.056074766355140186,0.01557632398753894,0.040498442367601244,0.040498442367601244,0.0,0.018691588785046728,0.003115264797507788
S10_D10 hbo,0.04195804195804196,0.01048951048951049,0.0,0.0034965034965034965,0.0034965034965034965,0.0,0.04895104895104895,0.0034965034965034965,0.0034965034965034965,0.017482517482517484,0.01048951048951049,0.027972027972027972,0.02097902097902098,0.0,0.0,0.0,0.0034965034965034965,0.017482517482517484,0.02097902097902098,0.006993006993006993,0.0,0.0,0.0,0.006993006993006993,0.03146853146853147,0.013986013986013986,0.02097902097902098,0.0,0.0,0.0,0.13636363636363635,0.0,0.0,0.0,0.0,0.03146853146853147,0.0,0.055944055944055944,0.04195804195804196,0.03146853146853147,0.027972027972027972,0.024475524475524476,0.013986013986013986,0.006993006993006993,0.027972027972027972,0.04195804195804196,0.055944055944055944,0.024475524475524476,0.017482517482517484,0.05244755244755245,0.04895104895104895,0.045454545454545456
S10_D12 hbo,0.0,0.040123456790123455,0.0,0.024691358024691357,0.046296296296296294,0.018518518518518517,0.0,0.05864197530864197,0.06172839506172839,0.030864197530864196,0.040123456790123455,0.0,0.0,0.0,0.0,0.0,0.040123456790123455,0.033950617283950615,0.0,0.05864197530864197,0.0,0.0,0.009259259259259259,0.006172839506172839,0.027777777777777776,0.0,0.04938271604938271,0.0,0.015432098765432098,0.0,0.0,0.05864197530864197,0.05864197530864197,0.0,0.06172839506172839,0.021604938271604937,0.0,0.0,0.030864197530864196,0.0,0.0,0.0,0.0,0.05246913580246913,0.015432098765432098,0.012345679012345678,0.012345679012345678,0.0030864197530864196,0.006172839506172839,0.037037037037037035,0.024691358024691357,0.043209876543209874
S11_D9 hbo,0.0,0.025936599423631124,0.0,0.03170028818443804,0.043227665706051875,0.011527377521613832,0.0,0.04899135446685879,0.05475504322766571,0.025936599423631124,0.043227665706051875,0.0,0.0,0.0,0.0,0.0,0.037463976945244955,0.03170028818443804,0.0,0.04610951008645533,0.002881844380403458,0.0,0.011527377521613832,0.008645533141210375,0.025936599423631124,0.0,0.04610951008645533,0.0,0.011527377521613832,0.011527377521613832,0.0,0.043227665706051875,0.06051873198847262,0.011527377521613832,0.04899135446685879,0.040345821325648415,0.0,0.0,0.02881844380403458,0.0,0.011527377521613832,0.011527377521613832,0.002881844380403458,0.04610951008645533,0.01729106628242075,0.025936599423631124,0.01440922190201729,0.005763688760806916,0.008645533141210375,0.037463976945244955,0.025936599423631124,0.040345821325648415
S11_D11 hbo,0.00909090909090909,0.004545454545454545,0.029545454545454545,0.029545454545454545,0.011363636363636364,0.0022727272727272726,0.0022727272727272726,0.004545454545454545,0.0,0.0,0.004545454545454545,0.013636363636363636,0.011363636363636364,0.031818181818181815,0.03409090909090909,0.020454545454545454,0.013636363636363636,0.013636363636363636,0.013636363636363636,0.013636363636363636,0.006818181818181818,0.0,0.00909090909090909,0.015909090909090907,0.00909090909090909,0.013636363636363636,0.011363636363636364,0.06363636363636363,0.031818181818181815,0.04318181818181818,0.0,0.0,0.00909090909090909,0.075,0.0,0.029545454545454545,0.031818181818181815,0.0,0.0,0.04090909090909091,0.04318181818181818,0.05454545454545454,0.031818181818181815,0.0,0.029545454545454545,0.05454545454545454,0.029545454545454545,0.03409090909090909,0.04318181818181818,0.011363636363636364,0.011363636363636364,0.0022727272727272726
S11_D12 hbo,0.0,0.031446540880503145,0.0,0.031446540880503145,0.0440251572327044,0.009433962264150943,0.0,0.05660377358490566,0.06289308176100629,0.025157232704402517,0.04716981132075472,0.0,0.0,0.0,0.0,0.0,0.040880503144654086,0.03459119496855346,0.0,0.05345911949685535,0.0,0.0,0.0031446540880503146,0.009433962264150943,0.02830188679245283,0.0,0.04716981132075472,0.0,0.009433962264150943,0.0,0.0,0.050314465408805034,0.05660377358490566,0.0,0.05660377358490566,0.02830188679245283,0.0,0.0,0.031446540880503145,0.0,0.0,0.0,0.0031446540880503146,0.05660377358490566,0.018867924528301886,0.015723270440251572,0.015723270440251572,0.006289308176100629,0.009433962264150943,0.040880503144654086,0.02830188679245283,0.04716981132075472
S11_D13 hbo,0.0078125,0.0,0.005859375,0.029296875,0.005859375,0.0,0.017578125,0.009765625,0.013671875,0.0,0.015625,0.017578125,0.0078125,0.005859375,0.0078125,0.00390625,0.01171875,0.017578125,0.009765625,0.01171875,0.00390625,0.0,0.005859375,0.015625,0.021484375,0.009765625,0.015625,0.017578125,0.0078125,0.025390625,0.01171875,0.005859375,0.01953125,0.037109375,0.009765625,0.06640625,0.01171875,0.005859375,0.0078125,0.0390625,0.037109375,0.05078125,0.0234375,0.01171875,0.046875,0.06640625,0.05078125,0.041015625,0.037109375,0.037109375,0.0390625,0.021484375
S12_D10 hbo,0.037209302325581395,0.0,0.09767441860465116,0.004651162790697674,0.0,0.023255813953488372,0.0,0.0,0.0,0.0,0.0,0.0,0.0,0.10232558139534884,0.09767441860465116,0.08372093023255814,0.0,0.0,0.0,0.0,0.0,0.0,0.009302325581395349,0.0,0.0,0.004651162790697674,0.0,0.06511627906976744,0.027906976744186046,0.037209302325581395,0.0,0.0,0.0,0.046511627906976744,0.0,0.009302325581395349,0.11627906976744186,0.0,0.0,0.023255813953488372,0.018604651162790697,0.05116279069767442,0.023255813953488372,0.0,0.018604651162790697,0.018604651162790697,0.018604651162790697,0.027906976744186046,0.037209302325581395,0.0,0.0,0.0
S12_D12 hbo,0.036458333333333336,0.0,0.0,0.0,0.010416666666666666,0.0,0.046875,0.015625,0.010416666666666666,0.036458333333333336,0.026041666666666668,0.041666666666666664,0.03125,0.0,0.0,0.0,0.03125,0.005208333333333333,0.046875,0.005208333333333333,0.0,0.0,0.0,0.03125,0.026041666666666668,0.03125,0.03125,0.0,0.0,0.0,0.08333333333333333,0.0,0.0,0.0,0.0,0.005208333333333333,0.005208333333333333,0.140625,0.10416666666666667,0.03125,0.020833333333333332,0.005208333333333333,0.03125,0.010416666666666666,0.005208333333333333,0.015625,0.015625,0.015625,0.005208333333333333,0.015625,0.015625,0.010416666666666666
S12_D14 hbo,0.012658227848101266,0.02531645569620253,0.0,0.017721518987341773,0.03291139240506329,0.005063291139240506,0.02531645569620253,0.03291139240506329,0.030379746835443037,0.03291139240506329,0.035443037974683546,0.017721518987341773,0.02278481012658228,0.0,0.0,0.0,0.035443037974683546,0.02531645569620253,0.017721518987341773,0.02531645569620253,0.0,0.0,0.0,0.015189873417721518,0.04556962025316456,0.010126582278481013,0.043037974683544304,0.0,0.005063291139240506,0.002531645569620253,0.03291139240506329,0.02278481012658228,0.02531645569620253,0.002531645569620253,0.02531645569620253,0.012658227848101266,0.0,0.043037974683544304,0.0759493670886076,0.017721518987341773,0.012658227848101266,0.0,0.010126582278481013,0.030379746835443037,0.012658227848101266,0.02278481012658228,0.020253164556962026,0.005063291139240506,0.007594936708860759,0.03291139240506329,0.03291139240506329,0.0379746835443038
S13_D6 hbo,0.009259259259259259,0.007716049382716049,0.010802469135802469,0.023148148148148147,0.023148148148148147,0.0,0.023148148148148147,0.012345679012345678,0.0030864197530864196,0.010802469135802469,0.013888888888888888,0.032407407407407406,0.030864197530864196,0.020061728395061727,0.016975308641975308,0.012345679012345678,0.016975308641975308,0.020061728395061727,0.026234567901234566,0.010802469135802469,0.0,0.0,0.0,0.021604938271604937,0.021604938271604937,0.020061728395061727,0.029320987654320986,0.026234567901234566,0.024691358024691357,0.033950617283950615,0.010802469135802469,0.0,0.0,0.024691358024691357,0.0,0.021604938271604937,0.013888888888888888,0.015432098765432098,0.013888888888888888,0.06172839506172839,0.047839506172839504,0.032407407407407406,0.032407407407407406,0.0030864197530864196,0.026234567901234566,0.037037037037037035,0.027777777777777776,0.035493827160493825,0.040123456790123455,0.018518518518518517,0.026234567901234566,0.009259259259259259
S13_D11 hbo,0.009433962264150943,0.007861635220125786,0.014150943396226415,0.015723270440251572,0.029874213836477988,0.0,0.02358490566037736,0.0110062893081761,0.0015723270440251573,0.007861635220125786,0.0110062893081761,0.03459119496855346,0.026729559748427674,0.01729559748427673,0.01729559748427673,0.0110062893081761,0.0220125786163522,0.0220125786163522,0.02830188679245283,0.015723270440251572,0.0,0.0,0.0015723270440251573,0.025157232704402517,0.018867924528301886,0.025157232704402517,0.026729559748427674,0.0220125786163522,0.02830188679245283,0.031446540880503145,0.007861635220125786,0.0,0.0031446540880503146,0.02830188679245283,0.0,0.020440251572327043,0.007861635220125786,0.012578616352201259,0.0110062893081761,0.05345911949685535,0.06918238993710692,0.02830188679245283,0.031446540880503145,0.0,0.02830188679245283,0.03930817610062893,0.02830188679245283,0.0330188679245283,0.03459119496855346,0.0220125786163522,0.025157232704402517,0.009433962264150943
S13_D13 hbo,0.017543859649122806,0.0,0.02412280701754386,0.019736842105263157,0.006578947368421052,0.0021929824561403508,0.017543859649122806,0.0,0.0,0.0,0.0,0.017543859649122806,0.010964912280701754,0.03070175438596491,0.02850877192982456,0.021929824561403508,0.0043859649122807015,0.017543859649122806,0.010964912280701754,0.0043859649122807015,0.0,0.0,0.0021929824561403508,0.008771929824561403,0.015350877192982455,0.013157894736842105,0.008771929824561403,0.043859649122807015,0.019736842105263157,0.046052631578947366,0.006578947368421052,0.0,0.0043859649122807015,0.04824561403508772,0.0,0.039473684210526314,0.03289473684210526,0.006578947368421052,0.0021929824561403508,0.05263157894736842,0.043859649122807015,0.07236842105263158,0.02850877192982456,0.0,0.03070175438596491,0.05701754385964912,0.03508771929824561,0.046052631578947366,0.04824561403508772,0.019736842105263157,0.02631578947368421,0.006578947368421052
S13_D15 hbo,0.019650655021834062,0.0,0.019650655021834062,0.010917030567685589,0.015283842794759825,0.0,0.019650655021834062,0.013100436681222707,0.0,0.008733624454148471,0.015283842794759825,0.03711790393013101,0.010917030567685589,0.013100436681222707,0.019650655021834062,0.010917030567685589,0.03711790393013101,0.026200873362445413,0.039301310043668124,0.026200873362445413,0.0,0.0,0.0,0.04148471615720524,0.002183406113537118,0.043668122270742356,0.013100436681222707,0.03275109170305677,0.03275109170305677,0.010917030567685589,0.004366812227074236,0.0,0.0,0.03056768558951965,0.0,0.015283842794759825,0.015283842794759825,0.019650655021834062,0.017467248908296942,0.043668122270742356,0.039301310043668124,0.026200873362445413,0.05895196506550218,0.0,0.03056768558951965,0.019650655021834062,0.03275109170305677,0.043668122270742356,0.048034934497816595,0.024017467248908297,0.010917030567685589,0.0
S14_D12 hbo,0.0,0.02147239263803681,0.0,0.03374233128834356,0.03680981595092025,0.003067484662576687,0.0,0.046012269938650305,0.05214723926380368,0.024539877300613498,0.05521472392638037,0.003067484662576687,0.006134969325153374,0.0,0.0,0.0,0.03374233128834356,0.027607361963190184,0.003067484662576687,0.04294478527607362,0.0,0.0,0.0,0.012269938650306749,0.03374233128834356,0.0,0.046012269938650305,0.0,0.003067484662576687,0.0,0.006134969325153374,0.03987730061349693,0.049079754601226995,0.003067484662576687,0.046012269938650305,0.03374233128834356,0.0,0.006134969325153374,0.03067484662576687,0.003067484662576687,0.0,0.003067484662576687,0.006134969325153374,0.06134969325153374,0.024539877300613498,0.02147239263803681,0.02147239263803681,0.009202453987730062,0.012269938650306749,0.049079754601226995,0.04294478527607362,0.046012269938650305
S14_D13 hbo,0.00686106346483705,0.0,0.012006861063464836,0.0137221269296741,0.0137221269296741,0.0,0.015437392795883362,0.0137221269296741,0.008576329331046312,0.003430531732418525,0.017152658662092625,0.0274442538593482,0.010291595197255575,0.00686106346483705,0.010291595197255575,0.00686106346483705,0.022298456260720412,0.0274442538593482,0.02058319039451115,0.022298456260720412,0.0,0.0,0.0,0.025728987993138937,0.015437392795883362,0.02058319039451115,0.015437392795883362,0.022298456260720412,0.02058319039451115,0.0137221269296741,0.008576329331046312,0.005145797598627788,0.00686106346483705,0.0274442538593482,0.00686106346483705,0.0411663807890223,0.010291595197255575,0.005145797598627788,0.00686106346483705,0.044596912521440824,0.03773584905660377,0.036020583190394515,0.03430531732418525,0.008576329331046312,0.051457975986277875,0.04631217838765009,0.051457975986277875,0.04974271012006861,0.044596912521440824,0.036020583190394515,0.030874785591766724,0.017152658662092625
S14_D14 hbo,0.007541478129713424,0.010558069381598794,0.00904977375565611,0.03167420814479638,0.010558069381598794,0.0,0.024132730015082957,0.004524886877828055,0.006033182503770739,0.0,0.007541478129713424,0.016591251885369532,0.016591251885369532,0.016591251885369532,0.012066365007541479,0.00904977375565611,0.00904977375565611,0.013574660633484163,0.00904977375565611,0.007541478129713424,0.0030165912518853697,0.0,0.004524886877828055,0.013574660633484163,0.02564102564102564,0.00904977375565611,0.016591251885369532,0.027149321266968326,0.013574660633484163,0.03469079939668175,0.012066365007541479,0.0030165912518853697,0.010558069381598794,0.03770739064856712,0.004524886877828055,0.04524886877828054,0.010558069381598794,0.006033182503770739,0.010558069381598794,0.049773755656108594,0.04675716440422323,0.04524886877828054,0.02262443438914027,0.006033182503770739,0.03619909502262444,0.07088989441930618,0.043740573152337855,0.03770739064856712,0.033182503770739065,0.033182503770739065,0.042232277526395176,0.02262443438914027
S14_D16 hbo,0.005772005772005772,0.005772005772005772,0.012987012987012988,0.015873015873015872,0.010101010101010102,0.0,0.023088023088023088,0.007215007215007215,0.005772005772005772,0.0,0.010101010101010102,0.024531024531024532,0.011544011544011544,0.005772005772005772,0.011544011544011544,0.005772005772005772,0.01875901875901876,0.023088023088023088,0.017316017316017316,0.01875901875901876,0.0,0.0,0.0,0.023088023088023088,0.020202020202020204,0.01875901875901876,0.01443001443001443,0.023088023088023088,0.020202020202020204,0.01443001443001443,0.017316017316017316,0.002886002886002886,0.004329004329004329,0.030303030303030304,0.004329004329004329,0.03896103896103896,0.010101010101010102,0.004329004329004329,0.010101010101010102,0.04329004329004329,0.03896103896103896,0.03318903318903319,0.031746031746031744,0.005772005772005772,0.044733044733044736,0.050505050505050504,0.05916305916305916,0.047619047619047616,0.04184704184704185,0.046176046176046176,0.03896103896103896,0.027417027417027416
S15_D13 hbo,0.00967741935483871,0.0,0.017741935483870968,0.0064516129032258064,0.012903225806451613,0.0,0.020967741935483872,0.0064516129032258064,0.0016129032258064516,0.0032258064516129032,0.00967741935483871,0.03225806451612903,0.00967741935483871,0.00967741935483871,0.016129032258064516,0.00967741935483871,0.020967741935483872,0.03870967741935484,0.025806451612903226,0.017741935483870968,0.0,0.0,0.0,0.027419354838709678,0.0064516129032258064,0.027419354838709678,0.01129032258064516,0.027419354838709678,0.024193548387096774,0.02903225806451613,0.008064516129032258,0.0,0.0,0.02903225806451613,0.0,0.03064516129032258,0.012903225806451613,0.008064516129032258,0.004838709677419355,0.05,0.041935483870967745,0.04032258064516129,0.04032258064516129,0.0016129032258064516,0.041935483870967745,0.037096774193548385,0.04516129032258064,0.06612903225806452,0.054838709677419356,0.03064516129032258,0.02258064516129032,0.01129032258064516
S15_D15 hbo,0.008291873963515755,0.003316749585406302,0.01990049751243781,0.01658374792703151,0.01824212271973466,0.0,0.011608623548922056,0.009950248756218905,0.003316749585406302,0.004975124378109453,0.013266998341625208,0.024875621890547265,0.013266998341625208,0.01824212271973466,0.02321724709784411,0.011608623548922056,0.02321724709784411,0.03482587064676617,0.024875621890547265,0.02155887230514096,0.0,0.0,0.0,0.029850746268656716,0.008291873963515755,0.028192371475953566,0.014925373134328358,0.03482587064676617,0.029850746268656716,0.029850746268656716,0.004975124378109453,0.0,0.001658374792703151,0.03482587064676617,0.001658374792703151,0.02155887230514096,0.01824212271973466,0.006633499170812604,0.003316749585406302,0.04643449419568822,0.03814262023217247,0.03814262023217247,0.04311774461028192,0.003316749585406302,0.03150912106135987,0.029850746268656716,0.03482587064676617,0.05140961857379768,0.05970149253731343,0.02321724709784411,0.01990049751243781,0.006633499170812604
S15_D16 hbo,0.007363770250368188,0.011782032400589101,0.004418262150220913,0.022091310751104567,0.020618556701030927,0.0,0.025036818851251842,0.017673048600883652,0.017673048600883652,0.005891016200294551,0.020618556701030927,0.023564064801178203,0.010309278350515464,0.0014727540500736377,0.0029455081001472753,0.0,0.025036818851251842,0.027982326951399118,0.016200294550810016,0.025036818851251842,0.0,0.0,0.0,0.020618556701030927,0.026509572901325478,0.016200294550810016,0.025036818851251842,0.011782032400589101,0.007363770250368188,0.004418262150220913,0.016200294550810016,0.013254786450662739,0.016200294550810016,0.017673048600883652,0.016200294550810016,0.039764359351988215,0.0,0.005891016200294551,0.016200294550810016,0.03240058910162003,0.030927835051546393,0.020618556701030927,0.022091310751104567,0.017673048600883652,0.039764359351988215,0.044182621502209134,0.050073637702503684,0.035346097201767304,0.029455081001472753,0.055964653902798235,0.045655375552282766,0.036818851251840944
S16_D14 hbo,0.006700167504187605,0.01675041876046901,0.0,0.031825795644891124,0.020100502512562814,0.0,0.02847571189279732,0.011725293132328308,0.01340033500837521,0.005025125628140704,0.01507537688442211,0.01675041876046901,0.020100502512562814,0.010050251256281407,0.005025125628140704,0.0033500837520938024,0.01507537688442211,0.023450586264656615,0.008375209380234505,0.01507537688442211,0.0,0.0,0.0,0.01340033500837521,0.03685092127303183,0.008375209380234505,0.02680067001675042,0.010050251256281407,0.006700167504187605,0.01675041876046901,0.01675041876046901,0.010050251256281407,0.011725293132328308,0.01340033500837521,0.011725293132328308,0.04020100502512563,0.0,0.005025125628140704,0.018425460636515914,0.04187604690117253,0.035175879396984924,0.02680067001675042,0.01507537688442211,0.01675041876046901,0.03685092127303183,0.06030150753768844,0.04690117252931323,0.03015075376884422,0.02512562814070352,0.051926298157453935,0.06365159128978225,0.03685092127303183
S16_D16 hbo,0.0019342359767891683,0.02321083172147002,0.0,0.025145067698259187,0.030947775628626693,0.0019342359767891683,0.02321083172147002,0.025145067698259187,0.027079303675048357,0.01160541586073501,0.027079303675048357,0.013539651837524178,0.013539651837524178,0.0038684719535783366,0.0019342359767891683,0.0,0.02127659574468085,0.025145067698259187,0.0038684719535783366,0.025145067698259187,0.0,0.0,0.0,0.007736943907156673,0.03868471953578337,0.0038684719535783366,0.03481624758220503,0.0038684719535783366,0.0019342359767891683,0.005802707930367505,0.02321083172147002,0.02321083172147002,0.025145067698259187,0.005802707930367505,0.025145067698259187,0.03481624758220503,0.0,0.0,0.02321083172147002,0.025145067698259187,0.02321083172147002,0.015473887814313346,0.007736943907156673,0.03288201160541586,0.030947775628626693,0.0425531914893617,0.0425531914893617,0.02127659574468085,0.019342359767891684,0.059961315280464215,0.05609284332688588,0.059961315280464215
