,S1_D1 hbo,S1_D3 hbo,S2_D1 hbo,S2_D2 hbo,S2_D4 hbo,S3_D1 hbo,S3_D3 hbo,S3_D4 hbo,S3_D5 hbo,S4_D2 hbo,S4_D4 hbo,S4_D6 hbo,S4_D11 hbo,S5_D3 hbo,S5_D5 hbo,S5_D7 hbo,S6_D4 hbo,S6_D5 hbo,S6_D6 hbo,S6_D8 hbo,S7_D5 hbo,S7_D7 hbo,S7_D8 hbo,S8_D6 hbo,S8_D8 hbo,S8_D15 hbo,S9_D2 hbo,S9_D9 hbo,S9_D11 hbo,S10_D9 hbo,S10_D10 hbo,S10_D12 hbo,S11_D9 hbo,S11_D11 hbo,S11_D12 hbo,S11_D13 hbo,S12_D10 hbo,S12_D12 hbo,S12_D14 hbo,S13_D6 hbo,S13_D11 hbo,S13_D13 hbo,S13_D15 hbo,S14_D12 hbo,S14_D13 hbo,S14_D14 hbo,S14_D16 hbo,S15_D13 hbo,S15_D15 hbo,S15_D16 hbo,S16_D14 hbo,S16_D16 hbo
S1_D1 hbo,0.07860262008733625,0.0,0.08296943231441048,0.0,0.0,0.0,0.0,0.0,0.0,0.0,0.0611353711790393,0.0,0.048034934497816595,0.0,0.06986899563318777,0.08296943231441048,0.0,0.0,0.0,0.0,0.0,0.06550218340611354,0.0,0.0,0.0,0.0,0.0,0.021834061135371178,0.0,0.08296943231441048,0.0,0.017467248908296942,0.0,0.0,0.0,0.0,0.0,0.0,0.08296943231441048,0.03056768558951965,0.0,0.06986899563318777,0.0,0.06550218340611354,0.06986899563318777,0.0,0.06550218340611354,0.0,0.0,0.004366812227074236,0.0,0.0
S1_D3 hbo,0.0,0.0,0.0,0.0,0.0,0.0,0.0,0.0,0.0,0.0,0.0,0.0,0.0,0.0,0.0,0.0,0.0,0.0,0.0,0.0,0.0,0.0,0.0,0.0,0.0,0.0,0.0,0.0,0.0,0.0,0.0,0.0,0.0,0.0,0.0,0.0,0.0,0.0,0.0,0.0,0.0,0.0,0.0,0.0,0.0,0.0,0.0,0.0,0.0,0.0,0.0,0.0
S2_D1 hbo,0.07203389830508475,0.0,0.1016949152542373,0.0,0.0,0.0,0.0,0.0,0.0,0.0,0.059322033898305086,0.0,0.046610169491525424,0.0,0.09322033898305085,0.08050847457627118,0.0,0.0,0.0,0.0,0.0,0.059322033898305086,0.0,0.0,0.0,0.0,0.0,0.0211864406779661,0.0,0.1016949152542373,0.0,0.012711864406779662,0.0,0.0,0.0,0.0,0.0,0.0,0.07627118644067797,0.029661016949152543,0.0,0.0635593220338983,0.0,0.059322033898305086,0.0635593220338983,0.0,0.059322033898305086,0.0,0.0,0.0,0.0,0.0
S2_D2 hbo,0.0,0.0,0.0,0.0,0.0,0.0,0.0,0.0,0.0,0.0,0.0,0.0,0.0,0.0,0.0,0.0,0.0,0.0,0.0,0.0,0.0,0.0,0.0,0.0,0.0,0.0,0.0,0.0,0.0,0.0,0.0,0.0,0.0,0.0,0.0,0.0,0.0,0.0,0.0,0.0,0.0,0.0,0.0,0.0,0.0,0.0,0.0,0.0,0.0,0.0,0.0,0.0
S2_D4 hbo,0.0,0.0,0.0,0.0,0.0,0.0,0.0,0.0,0.0,0.0,0.0,0.0,0.0,0.0,0.0,0.0,0.0,0.0,0.0,0.0,0.0,0.0,0.0,0.0,0.0,0.0,0.0,0.0,0.0,0.0,0.0,0.0,0.0,0.0,0.0,0.0,0.0,0.0,0.0,0.0,0.0,0.0,0.0,0.0,0.0,0.0,0.0,0.0,0.0,0.0,0.0,0.0
S3_D1 hbo,0.0,0.0,0.0,0.0,0.0,0.13333333333333333,0.0,0.0,0.0,0.0,0.0,0.0,0.0,0.0,0.0,0.0,0.13333333333333333,0.0,0.0,0.13333333333333333,0.0,0.0,0.0,0.0,0.0,0.0,0.0,0.0,0.0,0.0,0.0,0.0,0.0,0.0,0.0,0.13333333333333333,0.0,0.13333333333333333,0.0,0.0,0.0,0.0,0.0,0.0,0.0,0.1,0.0,0.0,0.13333333333333333,0.0,0.0,0.1
S3_D3 hbo,0.0,0.0,0.0,0.0,0.0,0.0,0.0,0.0,0.0,0.0,0.0,0.0,0.0,0.0,0.0,0.0,0.0,0.0,0.0,0.0,0.0,0.0,0.0,0.0,0.0,0.0,0.0,0.0,0.0,0.0,0.0,0.0,0.0,0.0,0.0,0.0,0.0,0.0,0.0,0.0,0.0,0.0,0.0,0.0,0.0,0.0,0.0,0.0,0.0,0.0,0.0,0.0
S3_D4 hbo,0.0,0.0,0.0,0.0,0.0,0.0,0.0,0.10526315789473684,0.10526315789473684,0.0,0.0,0.0,0.0,0.0,0.0,0.02631578947368421,0.0,0.0,0.0,0.0,0.0,0.0,0.0,0.0,0.0,0.0,0.0,0.0,0.0,0.0,0.0,0.06578947368421052,0.07894736842105263,0.039473684210526314,0.0,0.0,0.0,0.11842105263157894,0.11842105263157894,0.0,0.0,0.0,0.11842105263157894,0.02631578947368421,0.0,0.013157894736842105,0.013157894736842105,0.11842105263157894,0.02631578947368421,0.02631578947368421,0.0,0.0
S3_D5 hbo,0.0,0.0,0.0,0.0,0.0,0.0,0.0,0.09,0.11,0.0,0.0,0.0,0.0,0.0,0.0,0.02,0.0,0.0,0.0,0.0,0.0,0.0,0.0,0.0,0.0,0.0,0.0,0.0,0.0,0.0,0.0,0.05,0.06,0.05,0.0,0.0,0.0,0.12,0.12,0.0,0.0,0.0,0.12,0.02,0.0,0.04,0.01,0.12,0.05,0.02,0.0,0.0
S4_D2 hbo,0.0,0.0,0.0,0.0,0.0,0.0,0.0,0.0,0.0,0.0,0.0,0.0,0.0,0.0,0.0,0.0,0.0,0.0,0.0,0.0,0.0,0.0,0.0,0.0,0.0,0.0,0.0,0.0,0.0,0.0,0.0,0.0,0.0,0.0,0.0,0.0,0.0,0.0,0.0,0.0,0.0,0.0,0.0,0.0,0.0,0.0,0.0,0.0,0.0,0.0,0.0,0.0
S4_D4 hbo,0.07317073170731707,0.0,0.08536585365853659,0.0,0.0,0.0,0.0,0.0,0.0,0.0,0.07926829268292683,0.0,0.06707317073170732,0.0,0.08536585365853659,0.08536585365853659,0.0,0.0,0.0,0.0,0.0,0.054878048780487805,0.0,0.0,0.0,0.0,0.0,0.03048780487804878,0.0,0.08536585365853659,0.0,0.0,0.0,0.0,0.0,0.0,0.0,0.0,0.07926829268292683,0.042682926829268296,0.0,0.06097560975609756,0.0,0.054878048780487805,0.06097560975609756,0.0,0.054878048780487805,0.0,0.0,0.0,0.0,0.0
S4_D6 hbo,0.0,0.0,0.0,0.0,0.0,0.0,0.0,0.0,0.0,0.0,0.0,0.0,0.0,0.0,0.0,0.0,0.0,0.0,0.0,0.0,0.0,0.0,0.0,0.0,0.0,0.0,0.0,0.0,0.0,0.0,0.0,0.0,0.0,0.0,0.0,0.0,0.0,0.0,0.0,0.0,0.0,0.0,0.0,0.0,0.0,0.0,0.0,0.0,0.0,0.0,0.0,0.0
S4_D11 hbo,0.07801418439716312,0.0,0.07801418439716312,0.0,0.0,0.0,0.0,0.0,0.0,0.0,0.07801418439716312,0.0,0.07092198581560284,0.0,0.07801418439716312,0.07801418439716312,0.0,0.0,0.0,0.0,0.0,0.05673758865248227,0.0,0.0,0.0,0.0,0.0,0.03546099290780142,0.0,0.07801418439716312,0.0,0.0,0.0,0.0,0.0,0.0,0.0,0.0,0.07801418439716312,0.04964539007092199,0.0,0.06382978723404255,0.0,0.05673758865248227,0.06382978723404255,0.0,0.05673758865248227,0.0,0.0,0.0,0.0,0.0
S5_D3 hbo,0.0,0.0,0.0,0.0,0.0,0.0,0.0,0.0,0.0,0.0,0.0,0.0,0.0,0.0,0.0,0.0,0.0,0.0,0.0,0.0,0.0,0.0,0.0,0.0,0.0,0.0,0.0,0.0,0.0,0.0,0.0,0.0,0.0,0.0,0.0,0.0,0.0,0.0,0.0,0.0,0.0,0.0,0.0,0.0,0.0,0.0,0.0,0.0,0.0,0.0,0.0,0.0
S5_D5 hbo,0.06930693069306931,0.0,0.10396039603960396,0.0,0.0,0.0,0.0,0.0,0.0,0.0,0.06930693069306931,0.0,0.054455445544554455,0.0,0.10396039603960396,0.07920792079207921,0.0,0.0,0.0,0.0,0.0,0.054455445544554455,0.0,0.0,0.0,0.0,0.0,0.024752475247524754,0.0,0.10396039603960396,0.0,0.0,0.0,0.0,0.0,0.0,0.0,0.0,0.07425742574257425,0.034653465346534656,0.0,0.0594059405940594,0.0,0.054455445544554455,0.0594059405940594,0.0,0.054455445544554455,0.0,0.0,0.0,0.0,0.0
S5_D7 hbo,0.06291390728476821,0.0,0.0695364238410596,0.0,0.0,0.0,0.0,0.0,0.0,0.0,0.046357615894039736,0.0,0.03642384105960265,0.0,0.059602649006622516,0.08940397350993377,0.0,0.0,0.0,0.0,0.0,0.06622516556291391,0.0,0.0,0.0,0.0,0.0,0.016556291390728478,0.0,0.07947019867549669,0.0,0.03642384105960265,0.006622516556291391,0.0,0.0,0.0,0.0,0.0033112582781456954,0.08609271523178808,0.023178807947019868,0.0,0.0695364238410596,0.006622516556291391,0.0728476821192053,0.06291390728476821,0.0,0.0728476821192053,0.006622516556291391,0.0,0.026490066225165563,0.0,0.0
S6_D4 hbo,0.0,0.0,0.0,0.0,0.0,0.13333333333333333,0.0,0.0,0.0,0.0,0.0,0.0,0.0,0.0,0.0,0.0,0.13333333333333333,0.0,0.0,0.13333333333333333,0.0,0.0,0.0,0.0,0.0,0.0,0.0,0.0,0.0,0.0,0.0,0.0,0.0,0.0,0.0,0.13333333333333333,0.0,0.13333333333333333,0.0,0.0,0.0,0.0,0.0,0.0,0.0,0.1,0.0,0.0,0.13333333333333333,0.0,0.0,0.1
S6_D5 hbo,0.0,0.0,0.0,0.0,0.0,0.0,0.0,0.0,0.0,0.0,0.0,0.0,0.0,0.0,0.0,0.0,0.0,0.0,0.0,0.0,0.0,0.0,0.0,0.0,0.0,0.0,0.0,0.0,0.0,0.0,0.0,0.0,0.0,0.0,0.0,0.0,0.0,0.0,0.0,0.0,0.0,0.0,0.0,0.0,0.0,0.0,0.0,0.0,0.0,0.0,0.0,0.0
S6_D6 hbo,0.0,0.0,0.0,0.0,0.0,0.0,0.0,0.0,0.0,0.0,0.0,0.0,0.0,0.0,0.0,0.0,0.0,0.0,0.0,0.0,0.0,0.0,0.0,0.0,0.0,0.0,0.0,0.0,0.0,0.0,0.0,0.0,0.0,0.0,0.0,0.0,0.0,0.0,0.0,0.0,0.0,0.0,0.0,0.0,0.0,0.0,0.0,0.0,0.0,0.0,0.0,0.0
S6_D8 hbo,0.0,0.0,0.0,0.0,0.0,0.1282051282051282,0.0,0.0,0.0,0.0,0.0,0.0,0.0,0.0,0.0,0.0,0.1282051282051282,0.0,0.0,0.15384615384615385,0.0,0.0,0.0,0.0,0.0,0.0,0.0,0.0,0.0,0.0,0.0,0.0,0.0,0.0,0.0,0.1282051282051282,0.0,0.15384615384615385,0.0,0.0,0.0,0.0,0.0,0.0,0.0,0.07692307692307693,0.0,0.0,0.15384615384615385,0.0,0.0,0.07692307692307693
S7_D5 hbo,0.0,0.0,0.0,0.0,0.0,0.0,0.0,0.0,0.0,0.0,0.0,0.0,0.0,0.0,0.0,0.0,0.0,0.0,0.0,0.0,0.0,0.0,0.0,0.0,0.0,0.0,0.0,0.0,0.0,0.0,0.0,0.0,0.0,0.0,0.0,0.0,0.0,0.0,0.0,0.0,0.0,0.0,0.0,0.0,0.0,0.0,0.0,0.0,0.0,0.0,0.0,0.0
S7_D7 hbo,0.06882591093117409,0.0,0.06477732793522267,0.0,0.0,0.0,0.0,0.0,0.0,0.0,0.044534412955465584,0.0,0.04048582995951417,0.0,0.05263157894736842,0.08097165991902834,0.0,0.0,0.0,0.0,0.0,0.07692307692307693,0.0,0.0,0.0,0.0,0.0,0.020242914979757085,0.0,0.07692307692307693,0.0,0.032388663967611336,0.0,0.0,0.0,0.0,0.0,0.0,0.08097165991902834,0.02834008097165992,0.0,0.08097165991902834,0.0,0.07692307692307693,0.07692307692307693,0.0,0.07692307692307693,0.0,0.0,0.020242914979757085,0.0,0.0
S7_D8 hbo,0.0,0.0,0.0,0.0,0.0,0.0,0.0,0.0,0.0,0.0,0.0,0.0,0.0,0.0,0.0,0.0,0.0,0.0,0.0,0.0,0.0,0.0,0.0,0.0,0.0,0.0,0.0,0.0,0.0,0.0,0.0,0.0,0.0,0.0,0.0,0.0,0.0,0.0,0.0,0.0,0.0,0.0,0.0,0.0,0.0,0.0,0.0,0.0,0.0,0.0,0.0,0.0
S8_D6 hbo,0.0,0.0,0.0,0.0,0.0,0.0,0.0,0.0,0.0,0.0,0.0,0.0,0.0,0.0,0.0,0.0,0.0,0.0,0.0,0.0,0.0,0.0,0.0,0.0,0.0,0.0,0.0,0.0,0.0,0.0,0.0,0.0,0.0,0.0,0.0,0.0,0.0,0.0,0.0,0.0,0.0,0.0,0.0,0.0,0.0,0.0,0.0,0.0,0.0,0.0,0.0,0.0
S8_D8 hbo,0.0,0.0,0.0,0.0,0.0,0.0,0.0,0.0,0.0,0.0,0.0,0.0,0.0,0.0,0.0,0.0,0.0,0.0,0.0,0.0,0.0,0.0,0.0,0.0,0.0,0.0,0.0,0.0,0.0,0.0,0.0,0.0,0.0,0.0,0.0,0.0,0.0,0.0,0.0,0.0,0.0,0.0,0.0,0.0,0.0,0.0,0.0,0.0,0.0,0.0,0.0,0.0
S8_D15 hbo,0.0,0.0,0.0,0.0,0.0,0.0,0.0,0.0,0.0,0.0,0.0,0.0,0.0,0.0,0.0,0.0,0.0,0.0,0.0,0.0,0.0,0.0,0.0,0.0,0.0,0.0,0.0,0.0,0.0,0.0,0.0,0.0,0.0,0.0,0.0,0.0,0.0,0.0,0.0,0.0,0.0,0.0,0.0,0.0,0.0,0.0,0.0,0.0,0.0,0.0,0.0,0.0
S9_D2 hbo,0.0,0.0,0.0,0.0,0.0,0.0,0.0,0.0,0.0,0.0,0.0,0.0,0.0,0.0,0.0,0.0,0.0,0.0,0.0,0.0,0.0,0.0,0.0,0.0,0.0,0.0,0.0,0.0,0.0,0.0,0.0,0.0,0.0,0.0,0.0,0.0,0.0,0.0,0.0,0.0,0.0,0.0,0.0,0.0,0.0,0.0,0.0,0.0,0.0,0.0,0.0,0.0
S9_D9 hbo,0.07142857142857142,0.0,0.07142857142857142,0.0,0.0,0.0,0.0,0.0,0.0,0.0,0.07142857142857142,0.0,0.07142857142857142,0.0,0.07142857142857142,0.07142857142857142,0.0,0.0,0.0,0.0,0.0,0.05714285714285714,0.0,0.0,0.0,0.0,0.0,0.05714285714285714,0.0,0.07142857142857142,0.0,0.0,0.0,0.0,0.0,0.0,0.0,0.0,0.07142857142857142,0.05714285714285714,0.0,0.07142857142857142,0.0,0.05714285714285714,0.07142857142857142,0.0,0.05714285714285714,0.0,0.0,0.0,0.0,0.0
S9_D11 hbo,0.0,0.0,0.0,0.0,0.0,0.0,0.0,0.0,0.0,0.0,0.0,0.0,0.0,0.0,0.0,0.0,0.0,0.0,0.0,0.0,0.0,0.0,0.0,0.0,0.0,0.0,0.0,0.0,0.0,0.0,0.0,0.0,0.0,0.0,0.0,0.0,0.0,0.0,0.0,0.0,0.0,0.0,0.0,0.0,0.0,0.0,0.0,0.0,0.0,0.0,0.0,0.0
S10_D9 hbo,0.07063197026022305,0.0,0.09293680297397769,0.0,0.0,0.0,0.0,0.0,0.0,0.0,0.05204460966542751,0.0,0.040892193308550186,0.0,0.08178438661710037,0.08178438661710037,0.0,0.0,0.0,0.0,0.0,0.06319702602230483,0.0,0.0,0.0,0.0,0.0,0.01858736059479554,0.0,0.10037174721189591,0.0,0.022304832713754646,0.0,0.0,0.0,0.0,0.0,0.0,0.07806691449814127,0.026022304832713755,0.0,0.06691449814126393,0.0,0.06319702602230483,0.06691449814126393,0.0,0.06319702602230483,0.0,0.0,0.011152416356877323,0.0,0.0
S10_D10 hbo,0.0,0.0,0.0,0.0,0.0,0.0,0.0,0.0,0.0,0.0,0.0,0.0,0.0,0.0,0.0,0.0,0.0,0.0,0.0,0.0,0.0,0.0,0.0,0.0,0.0,0.0,0.0,0.0,0.0,0.0,0.0,0.0,0.0,0.0,0.0,0.0,0.0,0.0,0.0,0.0,0.0,0.0,0.0,0.0,0.0,0.0,0.0,0.0,0.0,0.0,0.0,0.0
S10_D12 hbo,0.04,0.0,0.03333333333333333,0.0,0.0,0.0,0.0,0.02,0.02,0.0,0.0,0.0,0.0,0.0,0.013333333333333334,0.08666666666666667,0.0,0.0,0.0,0.0,0.0,0.06666666666666667,0.0,0.0,0.0,0.0,0.0,0.0,0.0,0.05333333333333334,0.0,0.09333333333333334,0.03333333333333333,0.0,0.0,0.0,0.0,0.02666666666666667,0.1,0.0,0.0,0.06666666666666667,0.03333333333333333,0.08666666666666667,0.05333333333333334,0.0,0.08,0.03333333333333333,0.0,0.06,0.0,0.0
S11_D9 hbo,0.0,0.0,0.0,0.0,0.0,0.0,0.0,0.06451612903225806,0.06451612903225806,0.0,0.0,0.0,0.0,0.0,0.0,0.06451612903225806,0.0,0.0,0.0,0.0,0.0,0.016129032258064516,0.0,0.0,0.0,0.0,0.0,0.0,0.0,0.0,0.0,0.11290322580645161,0.0967741935483871,0.0,0.0,0.0,0.0,0.08064516129032258,0.11290322580645161,0.0,0.0,0.016129032258064516,0.0967741935483871,0.06451612903225806,0.0,0.0,0.04838709677419355,0.0967741935483871,0.0,0.06451612903225806,0.0,0.0
S11_D11 hbo,0.0,0.0,0.0,0.0,0.0,0.0,0.0,0.125,0.125,0.0,0.0,0.0,0.0,0.0,0.0,0.0,0.0,0.0,0.0,0.0,0.0,0.0,0.0,0.0,0.0,0.0,0.0,0.0,0.0,0.0,0.0,0.0,0.025,0.1,0.0,0.0,0.0,0.125,0.125,0.0,0.0,0.0,0.125,0.0,0.0,0.05,0.0,0.125,0.075,0.0,0.0,0.0
S11_D12 hbo,0.0,0.0,0.0,0.0,0.0,0.0,0.0,0.0,0.0,0.0,0.0,0.0,0.0,0.0,0.0,0.0,0.0,0.0,0.0,0.0,0.0,0.0,0.0,0.0,0.0,0.0,0.0,0.0,0.0,0.0,0.0,0.0,0.0,0.0,0.0,0.0,0.0,0.0,0.0,0.0,0.0,0.0,0.0,0.0,0.0,0.0,0.0,0.0,0.0,0.0,0.0,0.0
S11_D13 hbo,0.0,0.0,0.0,0.0,0.0,0.13333333333333333,0.0,0.0,0.0,0.0,0.0,0.0,0.0,0.0,0.0,0.0,0.13333333333333333,0.0,0.0,0.13333333333333333,0.0,0.0,0.0,0.0,0.0,0.0,0.0,0.0,0.0,0.0,0.0,0.0,0.0,0.0,0.0,0.13333333333333333,0.0,0.13333333333333333,0.0,0.0,0.0,0.0,0.0,0.0,0.0,0.1,0.0,0.0,0.13333333333333333,0.0,0.0,0.1
S12_D10 hbo,0.0,0.0,0.0,0.0,0.0,0.0,0.0,0.0,0.0,0.0,0.0,0.0,0.0,0.0,0.0,0.0,0.0,0.0,0.0,0.0,0.0,0.0,0.0,0.0,0.0,0.0,0.0,0.0,0.0,0.0,0.0,0.0,0.0,0.0,0.0,0.0,0.0,0.0,0.0,0.0,0.0,0.0,0.0,0.0,0.0,0.0,0.0,0.0,0.0,0.0,0.0,0.0
S12_D12 hbo,0.0,0.0,0.0,0.0,0.0,0.033112582781456956,0.0,0.059602649006622516,0.0728476821192053,0.0,0.0,0.0,0.0,0.0,0.0,0.019867549668874173,0.033112582781456956,0.0,0.0,0.046357615894039736,0.0,0.0,0.0,0.0,0.0,0.0,0.0,0.0,0.0,0.0,0.0,0.039735099337748346,0.046357615894039736,0.033112582781456956,0.0,0.033112582781456956,0.0,0.12582781456953643,0.08609271523178808,0.0,0.0,0.0,0.08609271523178808,0.019867549668874173,0.0,0.046357615894039736,0.013245033112582781,0.08609271523178808,0.07947019867549669,0.019867549668874173,0.0,0.019867549668874173
S12_D14 hbo,0.049738219895287955,0.0,0.05235602094240838,0.0,0.0,0.0,0.0,0.02356020942408377,0.02617801047120419,0.0,0.03664921465968586,0.0,0.028795811518324606,0.0,0.04450261780104712,0.07329842931937172,0.0,0.0,0.0,0.0,0.0,0.05235602094240838,0.0,0.0,0.0,0.0,0.0,0.013089005235602094,0.0,0.060209424083769635,0.0,0.03926701570680628,0.01832460732984293,0.013089005235602094,0.0,0.0,0.0,0.028795811518324606,0.09424083769633508,0.01832460732984293,0.0,0.0549738219895288,0.031413612565445025,0.060209424083769635,0.049738219895287955,0.007853403141361256,0.05759162303664921,0.031413612565445025,0.010471204188481676,0.02356020942408377,0.0,0.0
S13_D6 hbo,0.0707070707070707,0.0,0.0707070707070707,0.0,0.0,0.0,0.0,0.0,0.0,0.0,0.0707070707070707,0.0,0.0707070707070707,0.0,0.0707070707070707,0.0707070707070707,0.0,0.0,0.0,0.0,0.0,0.06060606060606061,0.0,0.0,0.0,0.0,0.0,0.050505050505050504,0.0,0.0707070707070707,0.0,0.0,0.0,0.0,0.0,0.0,0.0,0.0,0.0707070707070707,0.06060606060606061,0.0,0.0707070707070707,0.0,0.06060606060606061,0.0707070707070707,0.0,0.06060606060606061,0.0,0.0,0.0,0.0,0.0
S13_D11 hbo,0.0,0.0,0.0,0.0,0.0,0.0,0.0,0.0,0.0,0.0,0.0,0.0,0.0,0.0,0.0,0.0,0.0,0.0,0.0,0.0,0.0,0.0,0.0,0.0,0.0,0.0,0.0,0.0,0.0,0.0,0.0,0.0,0.0,0.0,0.0,0.0,0.0,0.0,0.0,0.0,0.0,0.0,0.0,0.0,0.0,0.0,0.0,0.0,0.0,0.0,0.0,0.0
S13_D13 hbo,0.07058823529411765,0.0,0.06666666666666667,0.0,0.0,0.0,0.0,0.0,0.0,0.0,0.047058823529411764,0.0,0.043137254901960784,0.0,0.054901960784313725,0.08235294117647059,0.0,0.0,0.0,0.0,0.0,0.07450980392156863,0.0,0.0,0.0,0.0,0.0,0.0196078431372549,0.0,0.0784313725490196,0.0,0.03137254901960784,0.0,0.0,0.0,0.0,0.0,0.0,0.08235294117647059,0.027450980392156862,0.0,0.0784313725490196,0.0,0.07450980392156863,0.07450980392156863,0.0,0.07450980392156863,0.0,0.0,0.0196078431372549,0.0,0.0
S13_D15 hbo,0.0,0.0,0.0,0.0,0.0,0.0,0.0,0.06818181818181818,0.09090909090909091,0.0,0.0,0.0,0.0,0.0,0.0,0.030303030303030304,0.0,0.0,0.0,0.0,0.0,0.007575757575757576,0.0,0.0,0.0,0.0,0.0,0.0,0.0,0.0,0.0,0.05303030303030303,0.05303030303030303,0.03787878787878788,0.0,0.0,0.0,0.09848484848484848,0.10606060606060606,0.0,0.0,0.007575757575757576,0.12878787878787878,0.030303030303030304,0.0,0.05303030303030303,0.022727272727272728,0.12878787878787878,0.05303030303030303,0.030303030303030304,0.0,0.0
S14_D12 hbo,0.06204379562043796,0.0,0.058394160583941604,0.0,0.0,0.0,0.0,0.0,0.0,0.0,0.040145985401459854,0.0,0.0364963503649635,0.0,0.04744525547445255,0.08394160583941605,0.0,0.0,0.0,0.0,0.0,0.072992700729927,0.0,0.0,0.0,0.0,0.0,0.01824817518248175,0.0,0.06934306569343066,0.0,0.040145985401459854,0.0072992700729927005,0.0,0.0,0.0,0.0,0.0036496350364963502,0.08394160583941605,0.025547445255474453,0.0,0.07664233576642336,0.0072992700729927005,0.08029197080291971,0.06934306569343066,0.0,0.08029197080291971,0.0072992700729927005,0.0,0.029197080291970802,0.0,0.0
S14_D13 hbo,0.0759493670886076,0.0,0.07172995780590717,0.0,0.0,0.0,0.0,0.0,0.0,0.0,0.05063291139240506,0.0,0.046413502109704644,0.0,0.05907172995780591,0.08016877637130802,0.0,0.0,0.0,0.0,0.0,0.07172995780590717,0.0,0.0,0.0,0.0,0.0,0.02109704641350211,0.0,0.08016877637130802,0.0,0.02531645569620253,0.0,0.0,0.0,0.0,0.0,0.0,0.08016877637130802,0.029535864978902954,0.0,0.0759493670886076,0.0,0.07172995780590717,0.0759493670886076,0.0,0.07172995780590717,0.0,0.0,0.012658227848101266,0.0,0.0
S14_D14 hbo,0.0,0.0,0.0,0.0,0.0,0.029850746268656716,0.0,0.04477611940298507,0.08955223880597014,0.0,0.0,0.0,0.0,0.0,0.0,0.0,0.029850746268656716,0.0,0.0,0.029850746268656716,0.0,0.0,0.0,0.0,0.0,0.0,0.0,0.0,0.0,0.0,0.0,0.0,0.0,0.05970149253731343,0.0,0.029850746268656716,0.0,0.11940298507462686,0.07462686567164178,0.0,0.0,0.0,0.1044776119402985,0.0,0.0,0.11940298507462686,0.0,0.1044776119402985,0.13432835820895522,0.0,0.0,0.029850746268656716
S14_D16 hbo,0.06439393939393939,0.0,0.06060606060606061,0.0,0.0,0.0,0.0,0.0,0.0,0.0,0.041666666666666664,0.0,0.03787878787878788,0.0,0.04924242424242424,0.08333333333333333,0.0,0.0,0.0,0.0,0.0,0.07575757575757576,0.0,0.0,0.0,0.0,0.0,0.01893939393939394,0.0,0.07196969696969698,0.0,0.03787878787878788,0.003787878787878788,0.0,0.0,0.0,0.0,0.0,0.08333333333333333,0.026515151515151516,0.0,0.07954545454545454,0.003787878787878788,0.07954545454545454,0.07196969696969698,0.0,0.07954545454545454,0.003787878787878788,0.0,0.026515151515151516,0.0,0.0
S15_D13 hbo,0.0,0.0,0.0,0.0,0.0,0.0,0.0,0.06818181818181818,0.09090909090909091,0.0,0.0,0.0,0.0,0.0,0.0,0.030303030303030304,0.0,0.0,0.0,0.0,0.0,0.007575757575757576,0.0,0.0,0.0,0.0,0.0,0.0,0.0,0.0,0.0,0.05303030303030303,0.05303030303030303,0.03787878787878788,0.0,0.0,0.0,0.09848484848484848,0.10606060606060606,0.0,0.0,0.007575757575757576,0.12878787878787878,0.030303030303030304,0.0,0.05303030303030303,0.022727272727272728,0.12878787878787878,0.05303030303030303,0.030303030303030304,0.0,0.0
S15_D15 hbo,0.0,0.0,0.0,0.0,0.0,0.053763440860215055,0.0,0.043010752688172046,0.07526881720430108,0.0,0.0,0.0,0.0,0.0,0.0,0.0,0.053763440860215055,0.0,0.0,0.06451612903225806,0.0,0.0,0.0,0.0,0.0,0.0,0.0,0.0,0.0,0.0,0.0,0.0,0.0,0.053763440860215055,0.0,0.053763440860215055,0.0,0.13978494623655913,0.06451612903225806,0.0,0.0,0.0,0.07526881720430108,0.0,0.0,0.08602150537634409,0.0,0.07526881720430108,0.12903225806451613,0.0,0.0,0.03225806451612903
S15_D16 hbo,0.033707865168539325,0.0,0.02247191011235955,0.0,0.0,0.0,0.0,0.0,0.0,0.0,0.0,0.0,0.0,0.0,0.0,0.10112359550561797,0.0,0.0,0.0,0.0,0.0,0.07865168539325842,0.0,0.0,0.0,0.0,0.0,0.0,0.0,0.056179775280898875,0.0,0.10112359550561797,0.02247191011235955,0.0,0.0,0.0,0.0,0.011235955056179775,0.10112359550561797,0.0,0.0,0.07865168539325842,0.02247191011235955,0.10112359550561797,0.056179775280898875,0.0,0.10112359550561797,0.02247191011235955,0.0,0.0898876404494382,0.0,0.0
S16_D14 hbo,0.0,0.0,0.0,0.0,0.0,0.0,0.0,0.0,0.0,0.0,0.0,0.0,0.0,0.0,0.0,0.0,0.0,0.0,0.0,0.0,0.0,0.0,0.0,0.0,0.0,0.0,0.0,0.0,0.0,0.0,0.0,0.0,0.0,0.0,0.0,0.0,0.0,0.0,0.0,0.0,0.0,0.0,0.0,0.0,0.0,0.0,0.0,0.0,0.0,0.0,0.0,0.0
S16_D16 hbo,0.0,0.0,0.0,0.0,0.0,0.125,0.0,0.0,0.0,0.0,0.0,0.0,0.0,0.0,0.0,0.0,0.125,0.0,0.0,0.125,0.0,0.0,0.0,0.0,0.0,0.0,0.0,0.0,0.0,0.0,0.0,0.0,0.0,0.0,0.0,0.125,0.0,0.125,0.0,0.0,0.0,0.0,0.0,0.0,0.0,0.125,0.0,0.0,0.125,0.0,0.0,0.125
