,S1_D1 hbo,S1_D3 hbo,S2_D1 hbo,S2_D2 hbo,S2_D4 hbo,S3_D1 hbo,S3_D3 hbo,S3_D4 hbo,S3_D5 hbo,S4_D2 hbo,S4_D4 hbo,S4_D6 hbo,S4_D11 hbo,S5_D3 hbo,S5_D5 hbo,S5_D7 hbo,S6_D4 hbo,S6_D5 hbo,S6_D6 hbo,S6_D8 hbo,S7_D5 hbo,S7_D7 hbo,S7_D8 hbo,S8_D6 hbo,S8_D8 hbo,S8_D15 hbo,S9_D2 hbo,S9_D9 hbo,S9_D11 hbo,S10_D9 hbo,S10_D10 hbo,S10_D12 hbo,S11_D9 hbo,S11_D11 hbo,S11_D12 hbo,S11_D13 hbo,S12_D10 hbo,S12_D12 hbo,S12_D14 hbo,S13_D6 hbo,S13_D11 hbo,S13_D13 hbo,S13_D15 hbo,S14_D12 hbo,S14_D13 hbo,S14_D14 hbo,S14_D16 hbo,S15_D13 hbo,S15_D15 hbo,S15_D16 hbo,S16_D14 hbo,S16_D16 hbo
S1_D1 hbo,0.7777777777777778,0.0,0.0,0.0,0.0,0.0,0.2222222222222222,0.0,0.0,0.0,0.0,0.0,0.0,0.0,0.0,0.0,0.0,0.0,0.0,0.0,0.0,0.0,0.0,0.0,0.0,0.0,0.0,0.0,0.0,0.0,0.0,0.0,0.0,0.0,0.0,0.0,0.0,0.0,0.0,0.0,0.0,0.0,0.0,0.0,0.0,0.0,0.0,0.0,0.0,0.0,0.0,0.0
S1_D3 hbo,0.0,0.29411764705882354,0.0,0.0,0.0,0.0,0.0,0.0,0.0,0.0,0.0,0.0,0.0,0.0,0.0,0.0,0.0,0.0,0.0,0.0,0.0,0.0,0.0,0.0,0.0,0.0,0.0,0.0,0.35294117647058826,0.0,0.0,0.0,0.0,0.0,0.0,0.35294117647058826,0.0,0.0,0.0,0.0,0.0,0.0,0.0,0.0,0.0,0.0,0.0,0.0,0.0,0.0,0.0,0.0
S2_D1 hbo,0.0,0.0,0.044444444444444446,0.015384615384615385,0.0,0.0,0.0,0.042735042735042736,0.037606837606837605,0.023931623931623933,0.03247863247863248,0.046153846153846156,0.0,0.0,0.039316239316239315,0.0,0.042735042735042736,0.03076923076923077,0.037606837606837605,0.037606837606837605,0.037606837606837605,0.0,0.046153846153846156,0.02735042735042735,0.046153846153846156,0.0,0.0,0.046153846153846156,0.0,0.039316239316239315,0.0,0.0,0.017094017094017096,0.020512820512820513,0.0,0.0,0.0,0.015384615384615385,0.02905982905982906,0.0,0.0,0.0,0.037606837606837605,0.0,0.042735042735042736,0.035897435897435895,0.044444444444444446,0.02564102564102564,0.0,0.041025641025641026,0.0,0.017094017094017096
S2_D2 hbo,0.0,0.0,0.044,0.06,0.0,0.0,0.0,0.04,0.032,0.016,0.02,0.052,0.0,0.0,0.044,0.0,0.04,0.028,0.036,0.036,0.056,0.0,0.044,0.024,0.06,0.0,0.0,0.056,0.0,0.036,0.0,0.0,0.012,0.016,0.0,0.0,0.0,0.0,0.02,0.0,0.0,0.0,0.032,0.0,0.04,0.032,0.04,0.02,0.0,0.036,0.0,0.028
S2_D4 hbo,0.0,0.0,0.0,0.0,0.125,0.0,0.0,0.0,0.0,0.1375,0.1375,0.0,0.0,0.0,0.0,0.0,0.0,0.0,0.0,0.0,0.0,0.0,0.0,0.0375,0.0,0.0,0.0,0.0,0.1375,0.0,0.0,0.0,0.1,0.125,0.0,0.0,0.1,0.0,0.1,0.0,0.0,0.0,0.0,0.0,0.0,0.0,0.0,0.0,0.0,0.0,0.0,0.0
S3_D1 hbo,0.0,0.0,0.0,0.0,0.0,0.0,0.0,0.0,0.0,0.0,0.0,0.0,0.0,0.0,0.0,0.0,0.0,0.0,0.0,0.0,0.0,0.0,0.0,0.0,0.0,0.0,0.0,0.0,0.0,0.0,0.0,0.0,0.0,0.0,0.0,0.0,0.0,0.0,0.0,0.0,0.0,0.0,0.0,0.0,0.0,0.0,0.0,0.0,0.0,0.0,0.0,0.0
S3_D3 hbo,0.13953488372093023,0.0,0.0,0.0,0.0,0.0,0.5116279069767442,0.0,0.0,0.0,0.0,0.0,0.0,0.3488372093023256,0.0,0.0,0.0,0.0,0.0,0.0,0.0,0.0,0.0,0.0,0.0,0.0,0.0,0.0,0.0,0.0,0.0,0.0,0.0,0.0,0.0,0.0,0.0,0.0,0.0,0.0,0.0,0.0,0.0,0.0,0.0,0.0,0.0,0.0,0.0,0.0,0.0,0.0
S3_D4 hbo,0.0,0.0,0.043936731107205626,0.014059753954305799,0.0,0.0,0.0,0.0421792618629174,0.03866432337434095,0.02460456942003515,0.033391915641476276,0.043936731107205626,0.0,0.0,0.03866432337434095,0.0,0.0421792618629174,0.03163444639718805,0.03866432337434095,0.03866432337434095,0.03690685413005272,0.0,0.043936731107205626,0.028119507908611598,0.043936731107205626,0.0,0.0,0.043936731107205626,0.0,0.040421792618629174,0.0,0.0,0.01757469244288225,0.0210896309314587,0.0,0.0,0.0,0.015817223198594025,0.029876977152899824,0.0,0.0,0.0,0.03866432337434095,0.0,0.0421792618629174,0.03690685413005272,0.043936731107205626,0.026362038664323375,0.0,0.0421792618629174,0.0,0.01757469244288225
S3_D5 hbo,0.0,0.0,0.041666666666666664,0.011363636363636364,0.0,0.0,0.0,0.041666666666666664,0.03977272727272727,0.026515151515151516,0.03598484848484849,0.041666666666666664,0.0,0.0,0.03787878787878788,0.0,0.041666666666666664,0.03409090909090909,0.03787878787878788,0.03787878787878788,0.03598484848484849,0.0,0.041666666666666664,0.030303030303030304,0.041666666666666664,0.0,0.0,0.041666666666666664,0.0,0.03977272727272727,0.0,0.0,0.01893939393939394,0.022727272727272728,0.0,0.0,0.0,0.017045454545454544,0.032196969696969696,0.0,0.0,0.0,0.03977272727272727,0.0,0.041666666666666664,0.03787878787878788,0.041666666666666664,0.028409090909090908,0.0,0.041666666666666664,0.0,0.01893939393939394
S4_D2 hbo,0.0,0.0,0.030434782608695653,0.004347826086956522,0.02391304347826087,0.0,0.0,0.030434782608695653,0.030434782608695653,0.05652173913043478,0.058695652173913045,0.030434782608695653,0.0,0.0,0.030434782608695653,0.0,0.030434782608695653,0.030434782608695653,0.030434782608695653,0.030434782608695653,0.030434782608695653,0.0,0.030434782608695653,0.034782608695652174,0.030434782608695653,0.0,0.0,0.030434782608695653,0.030434782608695653,0.030434782608695653,0.0,0.0,0.0391304347826087,0.04782608695652174,0.0,0.0,0.017391304347826087,0.01956521739130435,0.04782608695652174,0.0,0.0,0.0,0.030434782608695653,0.0,0.030434782608695653,0.030434782608695653,0.030434782608695653,0.02826086956521739,0.0,0.030434782608695653,0.0,0.013043478260869565
S4_D4 hbo,0.0,0.0,0.034420289855072464,0.005434782608695652,0.019927536231884056,0.0,0.0,0.034420289855072464,0.03260869565217391,0.050724637681159424,0.057971014492753624,0.034420289855072464,0.0,0.0,0.030797101449275364,0.0,0.034420289855072464,0.02717391304347826,0.030797101449275364,0.030797101449275364,0.028985507246376812,0.0,0.034420289855072464,0.030797101449275364,0.034420289855072464,0.0,0.0,0.034420289855072464,0.02717391304347826,0.03260869565217391,0.0,0.0,0.03260869565217391,0.041666666666666664,0.0,0.0,0.014492753623188406,0.016304347826086956,0.043478260869565216,0.0,0.0,0.0,0.03260869565217391,0.0,0.034420289855072464,0.030797101449275364,0.034420289855072464,0.025362318840579712,0.0,0.034420289855072464,0.0,0.012681159420289856
S4_D6 hbo,0.0,0.0,0.04492512479201331,0.018302828618968387,0.0,0.0,0.0,0.04159733777038269,0.036605657237936774,0.02329450915141431,0.03161397670549085,0.04991680532445923,0.0,0.0,0.03993344425956739,0.0,0.04159733777038269,0.029950083194675542,0.036605657237936774,0.036605657237936774,0.03993344425956739,0.0,0.04991680532445923,0.026622296173044926,0.048252911813643926,0.0,0.0,0.048252911813643926,0.0,0.03826955074875208,0.0,0.0,0.016638935108153077,0.019966722129783693,0.0,0.0,0.0,0.014975041597337771,0.028286189683860232,0.0,0.0,0.0,0.036605657237936774,0.0,0.04159733777038269,0.03494176372712146,0.04326123128119801,0.024958402662229616,0.0,0.03993344425956739,0.0,0.016638935108153077
S4_D11 hbo,0.0,0.0,0.0,0.0,0.0,0.0,0.0,0.0,0.0,0.0,0.0,0.0,0.1724137931034483,0.0,0.0,0.0,0.0,0.0,0.0,0.0,0.0,0.20689655172413793,0.0,0.0,0.0,0.0,0.20689655172413793,0.0,0.0,0.0,0.0,0.0,0.0,0.0,0.0,0.0,0.0,0.0,0.0,0.20689655172413793,0.0,0.0,0.0,0.0,0.0,0.0,0.0,0.0,0.0,0.0,0.0,0.20689655172413793
S5_D3 hbo,0.0,0.0,0.0,0.0,0.0,0.0,0.4857142857142857,0.0,0.0,0.0,0.0,0.0,0.0,0.5142857142857142,0.0,0.0,0.0,0.0,0.0,0.0,0.0,0.0,0.0,0.0,0.0,0.0,0.0,0.0,0.0,0.0,0.0,0.0,0.0,0.0,0.0,0.0,0.0,0.0,0.0,0.0,0.0,0.0,0.0,0.0,0.0,0.0,0.0,0.0,0.0,0.0,0.0,0.0
S5_D5 hbo,0.0,0.0,0.04247787610619469,0.01592920353982301,0.0,0.0,0.0,0.04247787610619469,0.03893805309734513,0.024778761061946902,0.033628318584070796,0.04247787610619469,0.0,0.0,0.04070796460176991,0.0,0.04247787610619469,0.03185840707964602,0.03893805309734513,0.03893805309734513,0.03893805309734513,0.0,0.04247787610619469,0.02831858407079646,0.04247787610619469,0.0,0.0,0.04247787610619469,0.0,0.04070796460176991,0.0,0.0,0.017699115044247787,0.021238938053097345,0.0,0.0,0.0,0.01592920353982301,0.03008849557522124,0.0,0.0,0.0,0.03893805309734513,0.0,0.04247787610619469,0.03716814159292035,0.04247787610619469,0.02654867256637168,0.0,0.04070796460176991,0.0,0.017699115044247787
S5_D7 hbo,0.0,0.0,0.0,0.0,0.0,0.0,0.0,0.0,0.0,0.0,0.0,0.0,0.0,0.0,0.0,1.0,0.0,0.0,0.0,0.0,0.0,0.0,0.0,0.0,0.0,0.0,0.0,0.0,0.0,0.0,0.0,0.0,0.0,0.0,0.0,0.0,0.0,0.0,0.0,0.0,0.0,0.0,0.0,0.0,0.0,0.0,0.0,0.0,0.0,0.0,0.0,0.0
S6_D4 hbo,0.0,0.0,0.043936731107205626,0.014059753954305799,0.0,0.0,0.0,0.0421792618629174,0.03866432337434095,0.02460456942003515,0.033391915641476276,0.043936731107205626,0.0,0.0,0.03866432337434095,0.0,0.0421792618629174,0.03163444639718805,0.03866432337434095,0.03866432337434095,0.03690685413005272,0.0,0.043936731107205626,0.028119507908611598,0.043936731107205626,0.0,0.0,0.043936731107205626,0.0,0.040421792618629174,0.0,0.0,0.01757469244288225,0.0210896309314587,0.0,0.0,0.0,0.015817223198594025,0.029876977152899824,0.0,0.0,0.0,0.03866432337434095,0.0,0.0421792618629174,0.03690685413005272,0.043936731107205626,0.026362038664323375,0.0,0.0421792618629174,0.0,0.01757469244288225
S6_D5 hbo,0.0,0.0,0.03870967741935484,0.010752688172043012,0.0,0.0,0.0,0.03870967741935484,0.03870967741935484,0.030107526881720432,0.03655913978494624,0.03870967741935484,0.0,0.0,0.03870967741935484,0.0,0.03870967741935484,0.03655913978494624,0.03870967741935484,0.03870967741935484,0.03870967741935484,0.0,0.03870967741935484,0.034408602150537634,0.03870967741935484,0.0,0.0,0.03870967741935484,0.0,0.03870967741935484,0.0,0.0,0.021505376344086023,0.025806451612903226,0.0,0.0,0.0,0.01935483870967742,0.03655913978494624,0.0,0.0,0.0,0.03870967741935484,0.0,0.03870967741935484,0.03870967741935484,0.03870967741935484,0.03225806451612903,0.0,0.03870967741935484,0.0,0.01935483870967742
S6_D6 hbo,0.0,0.0,0.040968342644320296,0.01303538175046555,0.0,0.0,0.0,0.040968342644320296,0.040968342644320296,0.0260707635009311,0.035381750465549346,0.040968342644320296,0.0,0.0,0.03910614525139665,0.0,0.040968342644320296,0.0335195530726257,0.03910614525139665,0.03910614525139665,0.037243947858473,0.0,0.040968342644320296,0.0297951582867784,0.040968342644320296,0.0,0.0,0.040968342644320296,0.0,0.040968342644320296,0.0,0.0,0.0186219739292365,0.0223463687150838,0.0,0.0,0.0,0.01675977653631285,0.03165735567970205,0.0,0.0,0.0,0.040968342644320296,0.0,0.040968342644320296,0.03910614525139665,0.040968342644320296,0.027932960893854747,0.0,0.040968342644320296,0.0,0.0186219739292365
S6_D8 hbo,0.0,0.0,0.040968342644320296,0.01303538175046555,0.0,0.0,0.0,0.040968342644320296,0.040968342644320296,0.0260707635009311,0.035381750465549346,0.040968342644320296,0.0,0.0,0.03910614525139665,0.0,0.040968342644320296,0.0335195530726257,0.03910614525139665,0.03910614525139665,0.037243947858473,0.0,0.040968342644320296,0.0297951582867784,0.040968342644320296,0.0,0.0,0.040968342644320296,0.0,0.040968342644320296,0.0,0.0,0.0186219739292365,0.0223463687150838,0.0,0.0,0.0,0.01675977653631285,0.03165735567970205,0.0,0.0,0.0,0.040968342644320296,0.0,0.040968342644320296,0.03910614525139665,0.040968342644320296,0.027932960893854747,0.0,0.040968342644320296,0.0,0.0186219739292365
S7_D5 hbo,0.0,0.0,0.0421792618629174,0.0210896309314587,0.0,0.0,0.0,0.040421792618629174,0.03690685413005272,0.02460456942003515,0.03163444639718805,0.04569420035149385,0.0,0.0,0.0421792618629174,0.0,0.040421792618629174,0.03163444639718805,0.03866432337434095,0.03866432337434095,0.043936731107205626,0.0,0.0421792618629174,0.028119507908611598,0.04569420035149385,0.0,0.0,0.04569420035149385,0.0,0.03866432337434095,0.0,0.0,0.01757469244288225,0.0210896309314587,0.0,0.0,0.0,0.015817223198594025,0.029876977152899824,0.0,0.0,0.0,0.03690685413005272,0.0,0.040421792618629174,0.03690685413005272,0.040421792618629174,0.026362038664323375,0.0,0.03866432337434095,0.0,0.01757469244288225
S7_D7 hbo,0.0,0.0,0.0,0.0,0.0,0.0,0.0,0.0,0.0,0.0,0.0,0.0,0.1016949152542373,0.0,0.0,0.0,0.0,0.0,0.0,0.0,0.0,0.23728813559322035,0.0,0.0,0.0,0.0,0.2542372881355932,0.0,0.0,0.0,0.0,0.0,0.0,0.0,0.0,0.0,0.0,0.0,0.0,0.1694915254237288,0.0,0.0,0.0,0.0,0.0,0.0,0.0,0.0,0.0,0.0,0.0,0.23728813559322035
S7_D8 hbo,0.0,0.0,0.04421768707482993,0.015306122448979591,0.0,0.0,0.0,0.04251700680272109,0.03741496598639456,0.023809523809523808,0.03231292517006803,0.047619047619047616,0.0,0.0,0.0391156462585034,0.0,0.04251700680272109,0.030612244897959183,0.03741496598639456,0.03741496598639456,0.03741496598639456,0.0,0.04931972789115646,0.027210884353741496,0.04591836734693878,0.0,0.0,0.04591836734693878,0.0,0.0391156462585034,0.0,0.0,0.017006802721088437,0.02040816326530612,0.0,0.0,0.0,0.015306122448979591,0.02891156462585034,0.0,0.0,0.0,0.03741496598639456,0.0,0.04251700680272109,0.03571428571428571,0.04421768707482993,0.025510204081632654,0.0,0.04081632653061224,0.0,0.017006802721088437
S8_D6 hbo,0.0,0.0,0.035634743875278395,0.008908685968819599,0.0066815144766146995,0.0,0.0,0.035634743875278395,0.035634743875278395,0.0378619153674833,0.042316258351893093,0.035634743875278395,0.0,0.0,0.035634743875278395,0.0,0.035634743875278395,0.035634743875278395,0.035634743875278395,0.035634743875278395,0.035634743875278395,0.0,0.035634743875278395,0.0378619153674833,0.035634743875278395,0.0,0.0,0.035634743875278395,0.0066815144766146995,0.035634743875278395,0.0,0.0,0.028953229398663696,0.0334075723830735,0.0,0.0,0.0066815144766146995,0.0200445434298441,0.042316258351893093,0.0,0.0,0.0,0.035634743875278395,0.0,0.035634743875278395,0.035634743875278395,0.035634743875278395,0.0334075723830735,0.0,0.035634743875278395,0.0,0.017817371937639197
S8_D8 hbo,0.0,0.0,0.04433497536945813,0.021346469622331693,0.0,0.0,0.0,0.041050903119868636,0.0361247947454844,0.022988505747126436,0.031198686371100164,0.05090311986863711,0.0,0.0,0.03940886699507389,0.0,0.041050903119868636,0.029556650246305417,0.0361247947454844,0.0361247947454844,0.042692939244663386,0.0,0.047619047619047616,0.026272577996715927,0.05090311986863711,0.0,0.0,0.05090311986863711,0.0,0.03776683087027915,0.0,0.0,0.016420361247947456,0.019704433497536946,0.0,0.0,0.0,0.014778325123152709,0.027914614121510674,0.0,0.0,0.0,0.0361247947454844,0.0,0.041050903119868636,0.034482758620689655,0.042692939244663386,0.024630541871921183,0.0,0.03940886699507389,0.0,0.016420361247947456
S8_D15 hbo,0.0,0.0,0.0,0.0,0.0,0.0,0.0,0.0,0.0,0.0,0.0,0.0,0.0,0.0,0.0,0.0,0.0,0.0,0.0,0.0,0.0,0.0,0.0,0.0,0.0,0.0,0.0,0.0,0.0,0.0,0.0,0.0,0.0,0.0,0.0,0.0,0.0,0.0,0.0,0.0,0.0,0.0,0.0,0.0,0.0,0.0,0.0,0.0,0.0,0.0,0.0,0.0
S9_D2 hbo,0.0,0.0,0.0,0.0,0.0,0.0,0.0,0.0,0.0,0.0,0.0,0.0,0.0967741935483871,0.0,0.0,0.0,0.0,0.0,0.0,0.0,0.0,0.24193548387096775,0.0,0.0,0.0,0.0,0.25806451612903225,0.0,0.0,0.0,0.0,0.0,0.0,0.0,0.0,0.0,0.0,0.0,0.0,0.16129032258064516,0.0,0.0,0.0,0.0,0.0,0.0,0.0,0.0,0.0,0.0,0.0,0.24193548387096775
S9_D9 hbo,0.0,0.0,0.04462809917355372,0.019834710743801654,0.0,0.0,0.0,0.04132231404958678,0.03636363636363636,0.023140495867768594,0.03140495867768595,0.0512396694214876,0.0,0.0,0.03966942148760331,0.0,0.04132231404958678,0.02975206611570248,0.03636363636363636,0.03636363636363636,0.04132231404958678,0.0,0.047933884297520664,0.026446280991735537,0.049586776859504134,0.0,0.0,0.049586776859504134,0.0,0.03801652892561983,0.0,0.0,0.01652892561983471,0.019834710743801654,0.0,0.0,0.0,0.01487603305785124,0.02809917355371901,0.0,0.0,0.0,0.03636363636363636,0.0,0.04132231404958678,0.03471074380165289,0.04297520661157025,0.024793388429752067,0.0,0.03966942148760331,0.0,0.01652892561983471
S9_D11 hbo,0.0,0.04411764705882353,0.0,0.0,0.08088235294117647,0.0,0.0,0.0,0.0,0.10294117647058823,0.11029411764705882,0.0,0.0,0.0,0.0,0.0,0.0,0.0,0.0,0.0,0.0,0.0,0.0,0.022058823529411766,0.0,0.0,0.0,0.0,0.2647058823529412,0.0,0.0,0.0,0.058823529411764705,0.08088235294117647,0.0,0.11764705882352941,0.058823529411764705,0.0,0.058823529411764705,0.0,0.0,0.0,0.0,0.0,0.0,0.0,0.0,0.0,0.0,0.0,0.0,0.0
S10_D9 hbo,0.0,0.0,0.04204753199268738,0.012797074954296161,0.0,0.0,0.0,0.04204753199268738,0.04021937842778794,0.025594149908592323,0.03473491773308958,0.04204753199268738,0.0,0.0,0.038391224862888484,0.0,0.04204753199268738,0.03290676416819013,0.038391224862888484,0.038391224862888484,0.03656307129798903,0.0,0.04204753199268738,0.029250457038391225,0.04204753199268738,0.0,0.0,0.04204753199268738,0.0,0.04021937842778794,0.0,0.0,0.018281535648994516,0.021937842778793418,0.0,0.0,0.0,0.016453382084095063,0.031078610603290677,0.0,0.0,0.0,0.04021937842778794,0.0,0.04204753199268738,0.038391224862888484,0.04204753199268738,0.027422303473491772,0.0,0.04204753199268738,0.0,0.018281535648994516
S10_D10 hbo,0.0,0.0,0.0,0.0,0.0,0.0,0.0,0.0,0.0,0.0,0.0,0.0,0.0,0.0,0.0,0.0,0.0,0.0,0.0,0.0,0.0,0.0,0.0,0.0,0.0,0.0,0.0,0.0,0.0,0.0,0.0,0.0,0.0,0.0,0.0,0.0,0.0,0.0,0.0,0.0,0.0,0.0,0.0,0.0,0.0,0.0,0.0,0.0,0.0,0.0,0.0,0.0
S10_D12 hbo,0.0,0.0,0.0,0.0,0.0,0.0,0.0,0.0,0.0,0.0,0.0,0.0,0.0,0.0,0.0,0.0,0.0,0.0,0.0,0.0,0.0,0.0,0.0,0.0,0.0,0.0,0.0,0.0,0.0,0.0,0.0,0.0,0.0,0.0,0.0,0.0,0.0,0.0,0.0,0.0,0.0,0.0,0.0,0.0,0.0,0.0,0.0,0.0,0.0,0.0,0.0,0.0
S11_D9 hbo,0.0,0.0,0.029850746268656716,0.0029850746268656717,0.023880597014925373,0.0,0.0,0.029850746268656716,0.029850746268656716,0.05373134328358209,0.05373134328358209,0.029850746268656716,0.0,0.0,0.029850746268656716,0.0,0.029850746268656716,0.029850746268656716,0.029850746268656716,0.029850746268656716,0.029850746268656716,0.0,0.029850746268656716,0.03880597014925373,0.029850746268656716,0.0,0.0,0.029850746268656716,0.023880597014925373,0.029850746268656716,0.0,0.0,0.04776119402985075,0.05373134328358209,0.0,0.0,0.01791044776119403,0.023880597014925373,0.04776119402985075,0.0,0.0,0.0,0.029850746268656716,0.0,0.029850746268656716,0.029850746268656716,0.029850746268656716,0.029850746268656716,0.0,0.029850746268656716,0.0,0.014925373134328358
S11_D11 hbo,0.0,0.0,0.029556650246305417,0.0049261083743842365,0.024630541871921183,0.0,0.0,0.029556650246305417,0.029556650246305417,0.05665024630541872,0.05665024630541872,0.029556650246305417,0.0,0.0,0.029556650246305417,0.0,0.029556650246305417,0.029556650246305417,0.029556650246305417,0.029556650246305417,0.029556650246305417,0.0,0.029556650246305417,0.03694581280788178,0.029556650246305417,0.0,0.0,0.029556650246305417,0.027093596059113302,0.029556650246305417,0.0,0.0,0.04433497536945813,0.05172413793103448,0.0,0.0,0.019704433497536946,0.022167487684729065,0.04926108374384237,0.0,0.0,0.0,0.029556650246305417,0.0,0.029556650246305417,0.029556650246305417,0.029556650246305417,0.029556650246305417,0.0,0.029556650246305417,0.0,0.014778325123152709
S11_D12 hbo,0.0,0.0,0.0,0.0,0.0,0.0,0.0,0.0,0.0,0.0,0.0,0.0,0.0,0.0,0.0,0.0,0.0,0.0,0.0,0.0,0.0,0.0,0.0,0.0,0.0,0.0,0.0,0.0,0.0,0.0,0.0,0.0,0.0,0.0,0.0,0.0,0.0,0.0,0.0,0.0,0.0,0.0,0.0,0.0,0.0,0.0,0.0,0.0,0.0,0.0,0.0,0.0
S11_D13 hbo,0.0,0.13636363636363635,0.0,0.0,0.0,0.0,0.0,0.0,0.0,0.0,0.0,0.0,0.0,0.0,0.0,0.0,0.0,0.0,0.0,0.0,0.0,0.0,0.0,0.0,0.0,0.0,0.0,0.0,0.38636363636363635,0.0,0.0,0.0,0.0,0.0,0.0,0.4772727272727273,0.0,0.0,0.0,0.0,0.0,0.0,0.0,0.0,0.0,0.0,0.0,0.0,0.0,0.0,0.0,0.0
S12_D10 hbo,0.0,0.0,0.0,0.0,0.12307692307692308,0.0,0.0,0.0,0.0,0.12307692307692308,0.12307692307692308,0.0,0.0,0.0,0.0,0.0,0.0,0.0,0.0,0.0,0.0,0.0,0.0,0.046153846153846156,0.0,0.0,0.0,0.0,0.12307692307692308,0.0,0.0,0.0,0.12307692307692308,0.12307692307692308,0.0,0.0,0.1076923076923077,0.0,0.1076923076923077,0.0,0.0,0.0,0.0,0.0,0.0,0.0,0.0,0.0,0.0,0.0,0.0,0.0
S12_D12 hbo,0.0,0.0,0.036734693877551024,0.0,0.0,0.0,0.0,0.036734693877551024,0.036734693877551024,0.036734693877551024,0.036734693877551024,0.036734693877551024,0.0,0.0,0.036734693877551024,0.0,0.036734693877551024,0.036734693877551024,0.036734693877551024,0.036734693877551024,0.036734693877551024,0.0,0.036734693877551024,0.036734693877551024,0.036734693877551024,0.0,0.0,0.036734693877551024,0.0,0.036734693877551024,0.0,0.0,0.024489795918367346,0.02857142857142857,0.0,0.0,0.0,0.05714285714285714,0.036734693877551024,0.0,0.0,0.0,0.036734693877551024,0.0,0.036734693877551024,0.036734693877551024,0.036734693877551024,0.036734693877551024,0.0,0.036734693877551024,0.0,0.00816326530612245
S12_D14 hbo,0.0,0.0,0.033932135728542916,0.005988023952095809,0.015968063872255488,0.0,0.0,0.033932135728542916,0.033932135728542916,0.043912175648702596,0.0499001996007984,0.033932135728542916,0.0,0.0,0.033932135728542916,0.0,0.033932135728542916,0.029940119760479042,0.033932135728542916,0.033932135728542916,0.031936127744510975,0.0,0.033932135728542916,0.033932135728542916,0.033932135728542916,0.0,0.0,0.033932135728542916,0.015968063872255488,0.033932135728542916,0.0,0.0,0.03592814371257485,0.03992015968063872,0.0,0.0,0.013972055888223553,0.017964071856287425,0.04590818363273453,0.0,0.0,0.0,0.033932135728542916,0.0,0.033932135728542916,0.033932135728542916,0.033932135728542916,0.027944111776447105,0.0,0.033932135728542916,0.0,0.013972055888223553
S13_D6 hbo,0.0,0.0,0.0,0.0,0.0,0.0,0.0,0.0,0.0,0.0,0.0,0.0,0.13333333333333333,0.0,0.0,0.0,0.0,0.0,0.0,0.0,0.0,0.2222222222222222,0.0,0.0,0.0,0.0,0.2222222222222222,0.0,0.0,0.0,0.0,0.0,0.0,0.0,0.0,0.0,0.0,0.0,0.0,0.2,0.0,0.0,0.0,0.0,0.0,0.0,0.0,0.0,0.0,0.0,0.0,0.2222222222222222
S13_D11 hbo,0.0,0.0,0.0,0.0,0.0,0.0,0.0,0.0,0.0,0.0,0.0,0.0,0.0,0.0,0.0,0.0,0.0,0.0,0.0,0.0,0.0,0.0,0.0,0.0,0.0,0.0,0.0,0.0,0.0,0.0,0.0,0.0,0.0,0.0,0.0,0.0,0.0,0.0,0.0,0.0,1.0,0.0,0.0,0.0,0.0,0.0,0.0,0.0,0.0,0.0,0.0,0.0
S13_D13 hbo,0.0,0.0,0.0,0.0,0.0,0.0,0.0,0.0,0.0,0.0,0.0,0.0,0.0,0.0,0.0,0.0,0.0,0.0,0.0,0.0,0.0,0.0,0.0,0.0,0.0,0.0,0.0,0.0,0.0,0.0,0.0,0.0,0.0,0.0,0.0,0.0,0.0,0.0,0.0,0.0,0.0,0.0,0.0,0.0,0.0,0.0,0.0,0.0,0.0,0.0,0.0,0.0
S13_D15 hbo,0.0,0.0,0.041666666666666664,0.011363636363636364,0.0,0.0,0.0,0.041666666666666664,0.03977272727272727,0.026515151515151516,0.03598484848484849,0.041666666666666664,0.0,0.0,0.03787878787878788,0.0,0.041666666666666664,0.03409090909090909,0.03787878787878788,0.03787878787878788,0.03598484848484849,0.0,0.041666666666666664,0.030303030303030304,0.041666666666666664,0.0,0.0,0.041666666666666664,0.0,0.03977272727272727,0.0,0.0,0.01893939393939394,0.022727272727272728,0.0,0.0,0.0,0.017045454545454544,0.032196969696969696,0.0,0.0,0.0,0.03977272727272727,0.0,0.041666666666666664,0.03787878787878788,0.041666666666666664,0.028409090909090908,0.0,0.041666666666666664,0.0,0.01893939393939394
S14_D12 hbo,0.0,0.0,0.0,0.0,0.0,0.0,0.0,0.0,0.0,0.0,0.0,0.0,0.0,0.0,0.0,0.0,0.0,0.0,0.0,0.0,0.0,0.0,0.0,0.0,0.0,0.0,0.0,0.0,0.0,0.0,0.0,0.0,0.0,0.0,0.0,0.0,0.0,0.0,0.0,0.0,0.0,0.0,0.0,0.0,0.0,0.0,0.0,0.0,0.0,0.0,0.0,0.0
S14_D13 hbo,0.0,0.0,0.043936731107205626,0.014059753954305799,0.0,0.0,0.0,0.0421792618629174,0.03866432337434095,0.02460456942003515,0.033391915641476276,0.043936731107205626,0.0,0.0,0.03866432337434095,0.0,0.0421792618629174,0.03163444639718805,0.03866432337434095,0.03866432337434095,0.03690685413005272,0.0,0.043936731107205626,0.028119507908611598,0.043936731107205626,0.0,0.0,0.043936731107205626,0.0,0.040421792618629174,0.0,0.0,0.01757469244288225,0.0210896309314587,0.0,0.0,0.0,0.015817223198594025,0.029876977152899824,0.0,0.0,0.0,0.03866432337434095,0.0,0.0421792618629174,0.03690685413005272,0.043936731107205626,0.026362038664323375,0.0,0.0421792618629174,0.0,0.01757469244288225
S14_D14 hbo,0.0,0.0,0.04054054054054054,0.011583011583011582,0.0,0.0,0.0,0.04054054054054054,0.04054054054054054,0.02702702702702703,0.03667953667953668,0.04054054054054054,0.0,0.0,0.03861003861003861,0.0,0.04054054054054054,0.03474903474903475,0.03861003861003861,0.03861003861003861,0.03667953667953668,0.0,0.04054054054054054,0.03088803088803089,0.04054054054054054,0.0,0.0,0.04054054054054054,0.0,0.04054054054054054,0.0,0.0,0.019305019305019305,0.023166023166023165,0.0,0.0,0.0,0.017374517374517374,0.032818532818532815,0.0,0.0,0.0,0.04054054054054054,0.0,0.04054054054054054,0.03861003861003861,0.04054054054054054,0.02895752895752896,0.0,0.04054054054054054,0.0,0.019305019305019305
S14_D16 hbo,0.0,0.0,0.04363001745200698,0.013961605584642234,0.0,0.0,0.0,0.041884816753926704,0.038394415357766144,0.02443280977312391,0.03315881326352531,0.04537521815008726,0.0,0.0,0.038394415357766144,0.0,0.041884816753926704,0.031413612565445025,0.038394415357766144,0.038394415357766144,0.03664921465968586,0.0,0.04537521815008726,0.027923211169284468,0.04537521815008726,0.0,0.0,0.04537521815008726,0.0,0.04013961605584642,0.0,0.0,0.017452006980802792,0.020942408376963352,0.0,0.0,0.0,0.015706806282722512,0.029668411867364748,0.0,0.0,0.0,0.038394415357766144,0.0,0.041884816753926704,0.03664921465968586,0.04363001745200698,0.02617801047120419,0.0,0.041884816753926704,0.0,0.017452006980802792
S15_D13 hbo,0.0,0.0,0.03768844221105527,0.007537688442211055,0.0,0.0,0.0,0.03768844221105527,0.03768844221105527,0.035175879396984924,0.03768844221105527,0.03768844221105527,0.0,0.0,0.03768844221105527,0.0,0.03768844221105527,0.03768844221105527,0.03768844221105527,0.03768844221105527,0.03768844221105527,0.0,0.03768844221105527,0.035175879396984924,0.03768844221105527,0.0,0.0,0.03768844221105527,0.0,0.03768844221105527,0.0,0.0,0.02512562814070352,0.03015075376884422,0.0,0.0,0.0,0.022613065326633167,0.03768844221105527,0.0,0.0,0.0,0.03768844221105527,0.0,0.03768844221105527,0.03768844221105527,0.03768844221105527,0.035175879396984924,0.0,0.03768844221105527,0.0,0.017587939698492462
S15_D15 hbo,0.0,0.0,0.0,0.0,0.0,0.0,0.0,0.0,0.0,0.0,0.0,0.0,0.0,0.0,0.0,0.0,0.0,0.0,0.0,0.0,0.0,0.0,0.0,0.0,0.0,0.0,0.0,0.0,0.0,0.0,0.0,0.0,0.0,0.0,0.0,0.0,0.0,0.0,0.0,0.0,0.0,0.0,0.0,0.0,0.0,0.0,0.0,0.0,0.0,0.0,0.0,0.0
S15_D16 hbo,0.0,0.0,0.0433996383363472,0.012658227848101266,0.0,0.0,0.0,0.04159132007233273,0.039783001808318265,0.02531645569620253,0.034358047016274866,0.0433996383363472,0.0,0.0,0.0379746835443038,0.0,0.04159132007233273,0.0325497287522604,0.0379746835443038,0.0379746835443038,0.03616636528028933,0.0,0.0433996383363472,0.028933092224231464,0.0433996383363472,0.0,0.0,0.0433996383363472,0.0,0.039783001808318265,0.0,0.0,0.018083182640144666,0.0216998191681736,0.0,0.0,0.0,0.0162748643761302,0.03074141048824593,0.0,0.0,0.0,0.039783001808318265,0.0,0.04159132007233273,0.0379746835443038,0.0433996383363472,0.027124773960216998,0.0,0.04159132007233273,0.0,0.018083182640144666
S16_D14 hbo,0.0,0.0,0.0,0.0,0.0,0.0,0.0,0.0,0.0,0.0,0.0,0.0,0.0,0.0,0.0,0.0,0.0,0.0,0.0,0.0,0.0,0.0,0.0,0.0,0.0,0.0,0.0,0.0,0.0,0.0,0.0,0.0,0.0,0.0,0.0,0.0,0.0,0.0,0.0,0.0,0.0,0.0,0.0,0.0,0.0,0.0,0.0,0.0,0.0,0.0,0.0,0.0
S16_D16 hbo,0.0,0.0,0.03003003003003003,0.015015015015015015,0.0,0.0,0.0,0.03003003003003003,0.03003003003003003,0.024024024024024024,0.02702702702702703,0.03003003003003003,0.018018018018018018,0.0,0.03003003003003003,0.0,0.03003003003003003,0.03003003003003003,0.03003003003003003,0.03003003003003003,0.03003003003003003,0.04504504504504504,0.03003003003003003,0.03003003003003003,0.03003003003003003,0.0,0.05105105105105105,0.03003003003003003,0.0,0.03003003003003003,0.0,0.0,0.021021021021021023,0.024024024024024024,0.0,0.0,0.0,0.012012012012012012,0.02702702702702703,0.03003003003003003,0.0,0.0,0.03003003003003003,0.0,0.03003003003003003,0.03003003003003003,0.03003003003003003,0.02702702702702703,0.0,0.03003003003003003,0.0,0.07807807807807808
