,S1_D1 hbo,S1_D3 hbo,S2_D1 hbo,S2_D2 hbo,S2_D4 hbo,S3_D1 hbo,S3_D3 hbo,S3_D4 hbo,S3_D5 hbo,S4_D2 hbo,S4_D4 hbo,S4_D6 hbo,S4_D11 hbo,S5_D3 hbo,S5_D5 hbo,S5_D7 hbo,S6_D4 hbo,S6_D5 hbo,S6_D6 hbo,S6_D8 hbo,S7_D5 hbo,S7_D7 hbo,S7_D8 hbo,S8_D6 hbo,S8_D8 hbo,S8_D15 hbo,S9_D2 hbo,S9_D9 hbo,S9_D11 hbo,S10_D9 hbo,S10_D10 hbo,S10_D12 hbo,S11_D9 hbo,S11_D11 hbo,S11_D12 hbo,S11_D13 hbo,S12_D10 hbo,S12_D12 hbo,S12_D14 hbo,S13_D6 hbo,S13_D11 hbo,S13_D13 hbo,S13_D15 hbo,S14_D12 hbo,S14_D13 hbo,S14_D14 hbo,S14_D16 hbo,S15_D13 hbo,S15_D15 hbo,S15_D16 hbo,S16_D14 hbo,S16_D16 hbo
S1_D1 hbo,0.020147750167897917,0.020147750167897917,0.01880456682337139,0.001343183344526528,0.020819341840161182,0.020147750167897917,0.020147750167897917,0.020147750167897917,0.019476158495634655,0.020147750167897917,0.020147750167897917,0.020147750167897917,0.020819341840161182,0.019476158495634655,0.020819341840161182,0.019476158495634655,0.020147750167897917,0.019476158495634655,0.01880456682337139,0.019476158495634655,0.020147750167897917,0.01880456682337139,0.019476158495634655,0.01880456682337139,0.012760241773002015,0.019476158495634655,0.020147750167897917,0.019476158495634655,0.019476158495634655,0.020819341840161182,0.020819341840161182,0.020147750167897917,0.019476158495634655,0.01880456682337139,0.01880456682337139,0.019476158495634655,0.020147750167897917,0.020147750167897917,0.020147750167897917,0.019476158495634655,0.019476158495634655,0.019476158495634655,0.01880456682337139,0.020147750167897917,0.020147750167897917,0.01880456682337139,0.01880456682337139,0.019476158495634655,0.020147750167897917,0.01880456682337139,0.018132975151108125,0.020819341840161182
S1_D3 hbo,0.01990049751243781,0.021321961620469083,0.01847903340440654,0.0014214641080312722,0.021321961620469083,0.01990049751243781,0.01990049751243781,0.01990049751243781,0.019189765458422176,0.01990049751243781,0.02061122956645345,0.01990049751243781,0.02061122956645345,0.01990049751243781,0.02061122956645345,0.019189765458422176,0.01990049751243781,0.01990049751243781,0.01847903340440654,0.021321961620469083,0.01990049751243781,0.01847903340440654,0.019189765458422176,0.01990049751243781,0.013503909026297086,0.01990049751243781,0.01990049751243781,0.019189765458422176,0.02203269367448472,0.02061122956645345,0.02061122956645345,0.01990049751243781,0.019189765458422176,0.01847903340440654,0.01847903340440654,0.019189765458422176,0.01990049751243781,0.01990049751243781,0.01990049751243781,0.019189765458422176,0.019189765458422176,0.019189765458422176,0.019189765458422176,0.01990049751243781,0.01990049751243781,0.01847903340440654,0.01847903340440654,0.019189765458422176,0.01990049751243781,0.01847903340440654,0.01847903340440654,0.02061122956645345
S2_D1 hbo,0.02040816326530612,0.01904761904761905,0.019727891156462583,0.0013605442176870747,0.019727891156462583,0.019727891156462583,0.02040816326530612,0.02040816326530612,0.02040816326530612,0.02040816326530612,0.01904761904761905,0.02040816326530612,0.019727891156462583,0.01904761904761905,0.019727891156462583,0.02040816326530612,0.02040816326530612,0.01904761904761905,0.019727891156462583,0.018367346938775512,0.019727891156462583,0.019727891156462583,0.02040816326530612,0.018367346938775512,0.01292517006802721,0.01904761904761905,0.02040816326530612,0.02040816326530612,0.018367346938775512,0.019727891156462583,0.019727891156462583,0.019727891156462583,0.02040816326530612,0.019727891156462583,0.01904761904761905,0.02040816326530612,0.019727891156462583,0.019727891156462583,0.019727891156462583,0.019727891156462583,0.02040816326530612,0.019727891156462583,0.01904761904761905,0.019727891156462583,0.019727891156462583,0.019727891156462583,0.019727891156462583,0.019727891156462583,0.019727891156462583,0.019727891156462583,0.018367346938775512,0.019727891156462583
S2_D2 hbo,0.019417475728155338,0.019417475728155338,0.019417475728155338,0.009708737864077669,0.019417475728155338,0.019417475728155338,0.019417475728155338,0.019417475728155338,0.019417475728155338,0.019417475728155338,0.019417475728155338,0.019417475728155338,0.019417475728155338,0.019417475728155338,0.019417475728155338,0.019417475728155338,0.019417475728155338,0.019417475728155338,0.019417475728155338,0.019417475728155338,0.019417475728155338,0.019417475728155338,0.019417475728155338,0.019417475728155338,0.019417475728155338,0.019417475728155338,0.019417475728155338,0.019417475728155338,0.019417475728155338,0.019417475728155338,0.019417475728155338,0.019417475728155338,0.019417475728155338,0.019417475728155338,0.019417475728155338,0.019417475728155338,0.019417475728155338,0.019417475728155338,0.019417475728155338,0.019417475728155338,0.019417475728155338,0.019417475728155338,0.019417475728155338,0.019417475728155338,0.019417475728155338,0.019417475728155338,0.019417475728155338,0.019417475728155338,0.019417475728155338,0.019417475728155338,0.019417475728155338,0.019417475728155338
S2_D4 hbo,0.019944979367262722,0.021320495185694635,0.018569463548830812,0.001375515818431912,0.021320495185694635,0.019944979367262722,0.019944979367262722,0.019944979367262722,0.01925722145804677,0.019944979367262722,0.02063273727647868,0.019944979367262722,0.02063273727647868,0.019944979367262722,0.02063273727647868,0.01925722145804677,0.019944979367262722,0.019944979367262722,0.018569463548830812,0.02063273727647868,0.019944979367262722,0.018569463548830812,0.01925722145804677,0.01925722145804677,0.013067400275103164,0.019944979367262722,0.019944979367262722,0.01925722145804677,0.021320495185694635,0.02063273727647868,0.02063273727647868,0.019944979367262722,0.01925722145804677,0.018569463548830812,0.018569463548830812,0.01925722145804677,0.019944979367262722,0.019944979367262722,0.019944979367262722,0.01925722145804677,0.01925722145804677,0.01925722145804677,0.01925722145804677,0.019944979367262722,0.019944979367262722,0.018569463548830812,0.018569463548830812,0.01925722145804677,0.019944979367262722,0.018569463548830812,0.018569463548830812,0.02063273727647868
S3_D1 hbo,0.020013802622498276,0.020703933747412008,0.018633540372670808,0.0013802622498274672,0.020703933747412008,0.020013802622498276,0.020013802622498276,0.020013802622498276,0.01932367149758454,0.020013802622498276,0.020703933747412008,0.020013802622498276,0.020703933747412008,0.020013802622498276,0.020703933747412008,0.01932367149758454,0.020013802622498276,0.020013802622498276,0.018633540372670808,0.020013802622498276,0.020013802622498276,0.018633540372670808,0.01932367149758454,0.01932367149758454,0.013112491373360938,0.020013802622498276,0.020013802622498276,0.01932367149758454,0.020013802622498276,0.020703933747412008,0.020703933747412008,0.020013802622498276,0.01932367149758454,0.018633540372670808,0.018633540372670808,0.01932367149758454,0.020013802622498276,0.020013802622498276,0.020013802622498276,0.01932367149758454,0.01932367149758454,0.01932367149758454,0.01932367149758454,0.020013802622498276,0.020013802622498276,0.018633540372670808,0.018633540372670808,0.01932367149758454,0.020013802622498276,0.018633540372670808,0.018633540372670808,0.020703933747412008
S3_D3 hbo,0.020147750167897917,0.020147750167897917,0.01880456682337139,0.001343183344526528,0.020819341840161182,0.020147750167897917,0.020147750167897917,0.020147750167897917,0.019476158495634655,0.020147750167897917,0.020147750167897917,0.020147750167897917,0.020819341840161182,0.019476158495634655,0.020819341840161182,0.019476158495634655,0.020147750167897917,0.019476158495634655,0.01880456682337139,0.019476158495634655,0.020147750167897917,0.01880456682337139,0.019476158495634655,0.01880456682337139,0.012760241773002015,0.019476158495634655,0.020147750167897917,0.019476158495634655,0.019476158495634655,0.020819341840161182,0.020819341840161182,0.020147750167897917,0.019476158495634655,0.01880456682337139,0.01880456682337139,0.019476158495634655,0.020147750167897917,0.020147750167897917,0.020147750167897917,0.019476158495634655,0.019476158495634655,0.019476158495634655,0.01880456682337139,0.020147750167897917,0.020147750167897917,0.01880456682337139,0.01880456682337139,0.019476158495634655,0.020147750167897917,0.01880456682337139,0.018132975151108125,0.020819341840161182
S3_D4 hbo,0.020147750167897917,0.020147750167897917,0.01880456682337139,0.001343183344526528,0.020819341840161182,0.020147750167897917,0.020147750167897917,0.020147750167897917,0.019476158495634655,0.020147750167897917,0.020147750167897917,0.020147750167897917,0.020819341840161182,0.019476158495634655,0.020819341840161182,0.019476158495634655,0.020147750167897917,0.019476158495634655,0.01880456682337139,0.019476158495634655,0.020147750167897917,0.01880456682337139,0.019476158495634655,0.01880456682337139,0.012760241773002015,0.019476158495634655,0.020147750167897917,0.019476158495634655,0.019476158495634655,0.020819341840161182,0.020819341840161182,0.020147750167897917,0.019476158495634655,0.01880456682337139,0.01880456682337139,0.019476158495634655,0.020147750167897917,0.020147750167897917,0.020147750167897917,0.019476158495634655,0.019476158495634655,0.019476158495634655,0.01880456682337139,0.020147750167897917,0.020147750167897917,0.01880456682337139,0.01880456682337139,0.019476158495634655,0.020147750167897917,0.01880456682337139,0.018132975151108125,0.020819341840161182
S3_D5 hbo,0.02028397565922921,0.0196078431372549,0.018931710615280595,0.001352265043948614,0.02028397565922921,0.02028397565922921,0.02028397565922921,0.02028397565922921,0.0196078431372549,0.02028397565922921,0.0196078431372549,0.02028397565922921,0.02028397565922921,0.0196078431372549,0.02028397565922921,0.0196078431372549,0.02028397565922921,0.0196078431372549,0.018931710615280595,0.018931710615280595,0.02028397565922921,0.018931710615280595,0.0196078431372549,0.018931710615280595,0.012846517917511832,0.0196078431372549,0.02028397565922921,0.0196078431372549,0.018931710615280595,0.02028397565922921,0.02028397565922921,0.02028397565922921,0.0196078431372549,0.018931710615280595,0.018931710615280595,0.0196078431372549,0.02028397565922921,0.02028397565922921,0.02028397565922921,0.0196078431372549,0.0196078431372549,0.0196078431372549,0.018931710615280595,0.02028397565922921,0.02028397565922921,0.018931710615280595,0.018931710615280595,0.0196078431372549,0.02028397565922921,0.018931710615280595,0.018255578093306288,0.02028397565922921
S4_D2 hbo,0.020147750167897917,0.020147750167897917,0.01880456682337139,0.001343183344526528,0.020819341840161182,0.020147750167897917,0.020147750167897917,0.020147750167897917,0.019476158495634655,0.020147750167897917,0.020147750167897917,0.020147750167897917,0.020819341840161182,0.019476158495634655,0.020819341840161182,0.019476158495634655,0.020147750167897917,0.019476158495634655,0.01880456682337139,0.019476158495634655,0.020147750167897917,0.01880456682337139,0.019476158495634655,0.01880456682337139,0.012760241773002015,0.019476158495634655,0.020147750167897917,0.019476158495634655,0.019476158495634655,0.020819341840161182,0.020819341840161182,0.020147750167897917,0.019476158495634655,0.01880456682337139,0.01880456682337139,0.019476158495634655,0.020147750167897917,0.020147750167897917,0.020147750167897917,0.019476158495634655,0.019476158495634655,0.019476158495634655,0.01880456682337139,0.020147750167897917,0.020147750167897917,0.01880456682337139,0.01880456682337139,0.019476158495634655,0.020147750167897917,0.01880456682337139,0.018132975151108125,0.020819341840161182
S4_D4 hbo,0.01991465149359886,0.021337126600284494,0.01849217638691323,0.001422475106685633,0.021337126600284494,0.01991465149359886,0.01991465149359886,0.01991465149359886,0.019203413940256046,0.01991465149359886,0.020625889046941678,0.01991465149359886,0.020625889046941678,0.01991465149359886,0.020625889046941678,0.019203413940256046,0.01991465149359886,0.01991465149359886,0.01849217638691323,0.021337126600284494,0.01991465149359886,0.01849217638691323,0.019203413940256046,0.01991465149359886,0.013513513513513514,0.01991465149359886,0.01991465149359886,0.019203413940256046,0.021337126600284494,0.020625889046941678,0.020625889046941678,0.01991465149359886,0.019203413940256046,0.01849217638691323,0.01849217638691323,0.019203413940256046,0.01991465149359886,0.01991465149359886,0.01991465149359886,0.019203413940256046,0.019203413940256046,0.019203413940256046,0.019203413940256046,0.01991465149359886,0.01991465149359886,0.01849217638691323,0.01849217638691323,0.019203413940256046,0.01991465149359886,0.01849217638691323,0.01849217638691323,0.020625889046941678
S4_D6 hbo,0.020147750167897917,0.020147750167897917,0.01880456682337139,0.001343183344526528,0.020819341840161182,0.020147750167897917,0.020147750167897917,0.020147750167897917,0.019476158495634655,0.020147750167897917,0.020147750167897917,0.020147750167897917,0.020819341840161182,0.019476158495634655,0.020819341840161182,0.019476158495634655,0.020147750167897917,0.019476158495634655,0.01880456682337139,0.019476158495634655,0.020147750167897917,0.01880456682337139,0.019476158495634655,0.01880456682337139,0.012760241773002015,0.019476158495634655,0.020147750167897917,0.019476158495634655,0.019476158495634655,0.020819341840161182,0.020819341840161182,0.020147750167897917,0.019476158495634655,0.01880456682337139,0.01880456682337139,0.019476158495634655,0.020147750167897917,0.020147750167897917,0.020147750167897917,0.019476158495634655,0.019476158495634655,0.019476158495634655,0.01880456682337139,0.020147750167897917,0.020147750167897917,0.01880456682337139,0.01880456682337139,0.019476158495634655,0.020147750167897917,0.01880456682337139,0.018132975151108125,0.020819341840161182
S4_D11 hbo,0.01995870612525809,0.021335168616655197,0.018582243633860976,0.0013764624913971094,0.021335168616655197,0.01995870612525809,0.01995870612525809,0.01995870612525809,0.019270474879559532,0.01995870612525809,0.02064693737095664,0.01995870612525809,0.02064693737095664,0.01995870612525809,0.02064693737095664,0.019270474879559532,0.01995870612525809,0.01995870612525809,0.018582243633860976,0.02064693737095664,0.01995870612525809,0.018582243633860976,0.019270474879559532,0.019270474879559532,0.01307639366827254,0.01995870612525809,0.01995870612525809,0.019270474879559532,0.02064693737095664,0.02064693737095664,0.02064693737095664,0.01995870612525809,0.019270474879559532,0.018582243633860976,0.018582243633860976,0.019270474879559532,0.01995870612525809,0.01995870612525809,0.01995870612525809,0.019270474879559532,0.019270474879559532,0.019270474879559532,0.019270474879559532,0.01995870612525809,0.01995870612525809,0.018582243633860976,0.018582243633860976,0.019270474879559532,0.01995870612525809,0.018582243633860976,0.018582243633860976,0.02064693737095664
S5_D3 hbo,0.019971469329529243,0.020684736091298145,0.018544935805991442,0.0014265335235378032,0.020684736091298145,0.019971469329529243,0.019971469329529243,0.019971469329529243,0.01925820256776034,0.019971469329529243,0.020684736091298145,0.019971469329529243,0.020684736091298145,0.019971469329529243,0.020684736091298145,0.01925820256776034,0.019971469329529243,0.019971469329529243,0.018544935805991442,0.020684736091298145,0.019971469329529243,0.018544935805991442,0.01925820256776034,0.019971469329529243,0.01355206847360913,0.019971469329529243,0.019971469329529243,0.01925820256776034,0.020684736091298145,0.020684736091298145,0.020684736091298145,0.019971469329529243,0.01925820256776034,0.018544935805991442,0.018544935805991442,0.01925820256776034,0.019971469329529243,0.019971469329529243,0.019971469329529243,0.01925820256776034,0.01925820256776034,0.01925820256776034,0.01925820256776034,0.019971469329529243,0.019971469329529243,0.018544935805991442,0.018544935805991442,0.01925820256776034,0.019971469329529243,0.018544935805991442,0.018544935805991442,0.020684736091298145
S5_D5 hbo,0.01995870612525809,0.021335168616655197,0.018582243633860976,0.0013764624913971094,0.021335168616655197,0.01995870612525809,0.01995870612525809,0.01995870612525809,0.019270474879559532,0.01995870612525809,0.02064693737095664,0.01995870612525809,0.02064693737095664,0.01995870612525809,0.02064693737095664,0.019270474879559532,0.01995870612525809,0.01995870612525809,0.018582243633860976,0.02064693737095664,0.01995870612525809,0.018582243633860976,0.019270474879559532,0.019270474879559532,0.01307639366827254,0.01995870612525809,0.01995870612525809,0.019270474879559532,0.02064693737095664,0.02064693737095664,0.02064693737095664,0.01995870612525809,0.019270474879559532,0.018582243633860976,0.018582243633860976,0.019270474879559532,0.01995870612525809,0.01995870612525809,0.01995870612525809,0.019270474879559532,0.019270474879559532,0.019270474879559532,0.019270474879559532,0.01995870612525809,0.01995870612525809,0.018582243633860976,0.018582243633860976,0.019270474879559532,0.01995870612525809,0.018582243633860976,0.018582243633860976,0.02064693737095664
S5_D7 hbo,0.02028397565922921,0.0196078431372549,0.018931710615280595,0.001352265043948614,0.02028397565922921,0.02028397565922921,0.02028397565922921,0.02028397565922921,0.0196078431372549,0.02028397565922921,0.0196078431372549,0.02028397565922921,0.02028397565922921,0.0196078431372549,0.02028397565922921,0.0196078431372549,0.02028397565922921,0.0196078431372549,0.018931710615280595,0.018931710615280595,0.02028397565922921,0.018931710615280595,0.0196078431372549,0.018931710615280595,0.012846517917511832,0.0196078431372549,0.02028397565922921,0.0196078431372549,0.018931710615280595,0.02028397565922921,0.02028397565922921,0.02028397565922921,0.0196078431372549,0.018931710615280595,0.018931710615280595,0.0196078431372549,0.02028397565922921,0.02028397565922921,0.02028397565922921,0.0196078431372549,0.0196078431372549,0.0196078431372549,0.018931710615280595,0.02028397565922921,0.02028397565922921,0.018931710615280595,0.018931710615280595,0.0196078431372549,0.02028397565922921,0.018931710615280595,0.018255578093306288,0.02028397565922921
S6_D4 hbo,0.020147750167897917,0.020147750167897917,0.01880456682337139,0.001343183344526528,0.020819341840161182,0.020147750167897917,0.020147750167897917,0.020147750167897917,0.019476158495634655,0.020147750167897917,0.020147750167897917,0.020147750167897917,0.020819341840161182,0.019476158495634655,0.020819341840161182,0.019476158495634655,0.020147750167897917,0.019476158495634655,0.01880456682337139,0.019476158495634655,0.020147750167897917,0.01880456682337139,0.019476158495634655,0.01880456682337139,0.012760241773002015,0.019476158495634655,0.020147750167897917,0.019476158495634655,0.019476158495634655,0.020819341840161182,0.020819341840161182,0.020147750167897917,0.019476158495634655,0.01880456682337139,0.01880456682337139,0.019476158495634655,0.020147750167897917,0.020147750167897917,0.020147750167897917,0.019476158495634655,0.019476158495634655,0.019476158495634655,0.01880456682337139,0.020147750167897917,0.020147750167897917,0.01880456682337139,0.01880456682337139,0.019476158495634655,0.020147750167897917,0.01880456682337139,0.018132975151108125,0.020819341840161182
S6_D5 hbo,0.019971469329529243,0.020684736091298145,0.018544935805991442,0.0014265335235378032,0.020684736091298145,0.019971469329529243,0.019971469329529243,0.019971469329529243,0.01925820256776034,0.019971469329529243,0.020684736091298145,0.019971469329529243,0.020684736091298145,0.019971469329529243,0.020684736091298145,0.01925820256776034,0.019971469329529243,0.019971469329529243,0.018544935805991442,0.020684736091298145,0.019971469329529243,0.018544935805991442,0.01925820256776034,0.019971469329529243,0.01355206847360913,0.019971469329529243,0.019971469329529243,0.01925820256776034,0.020684736091298145,0.020684736091298145,0.020684736091298145,0.019971469329529243,0.01925820256776034,0.018544935805991442,0.018544935805991442,0.01925820256776034,0.019971469329529243,0.019971469329529243,0.019971469329529243,0.01925820256776034,0.01925820256776034,0.01925820256776034,0.01925820256776034,0.019971469329529243,0.019971469329529243,0.018544935805991442,0.018544935805991442,0.01925820256776034,0.019971469329529243,0.018544935805991442,0.018544935805991442,0.020684736091298145
S6_D6 hbo,0.020013802622498276,0.01932367149758454,0.01932367149758454,0.0013802622498274672,0.020013802622498276,0.020013802622498276,0.020013802622498276,0.020013802622498276,0.020013802622498276,0.020013802622498276,0.01932367149758454,0.020013802622498276,0.020013802622498276,0.01932367149758454,0.020013802622498276,0.020013802622498276,0.020013802622498276,0.01932367149758454,0.01932367149758454,0.018633540372670808,0.020013802622498276,0.01932367149758454,0.020013802622498276,0.018633540372670808,0.013112491373360938,0.01932367149758454,0.020013802622498276,0.020013802622498276,0.018633540372670808,0.020013802622498276,0.020013802622498276,0.020013802622498276,0.020013802622498276,0.01932367149758454,0.01932367149758454,0.020013802622498276,0.020013802622498276,0.020013802622498276,0.020013802622498276,0.020013802622498276,0.020013802622498276,0.020013802622498276,0.01932367149758454,0.020013802622498276,0.020013802622498276,0.01932367149758454,0.01932367149758454,0.020013802622498276,0.020013802622498276,0.01932367149758454,0.018633540372670808,0.020013802622498276
S6_D8 hbo,0.01989683124539425,0.021370670596904937,0.018422991893883568,0.0014738393515106854,0.021370670596904937,0.01989683124539425,0.01989683124539425,0.01989683124539425,0.01915991156963891,0.01989683124539425,0.020633750921149593,0.01989683124539425,0.020633750921149593,0.01989683124539425,0.020633750921149593,0.01915991156963891,0.01989683124539425,0.01989683124539425,0.018422991893883568,0.021370670596904937,0.01989683124539425,0.018422991893883568,0.01915991156963891,0.01989683124539425,0.01400147383935151,0.01989683124539425,0.01989683124539425,0.01915991156963891,0.02210759027266028,0.020633750921149593,0.020633750921149593,0.01989683124539425,0.01915991156963891,0.018422991893883568,0.018422991893883568,0.01915991156963891,0.01989683124539425,0.01989683124539425,0.01989683124539425,0.01915991156963891,0.01915991156963891,0.01915991156963891,0.01915991156963891,0.01989683124539425,0.01989683124539425,0.018422991893883568,0.018422991893883568,0.01915991156963891,0.01989683124539425,0.018422991893883568,0.018422991893883568,0.020633750921149593
S7_D5 hbo,0.020013802622498276,0.020703933747412008,0.018633540372670808,0.0013802622498274672,0.020703933747412008,0.020013802622498276,0.020013802622498276,0.020013802622498276,0.01932367149758454,0.020013802622498276,0.020703933747412008,0.020013802622498276,0.020703933747412008,0.020013802622498276,0.020703933747412008,0.01932367149758454,0.020013802622498276,0.020013802622498276,0.018633540372670808,0.020013802622498276,0.020013802622498276,0.018633540372670808,0.01932367149758454,0.01932367149758454,0.013112491373360938,0.020013802622498276,0.020013802622498276,0.01932367149758454,0.020013802622498276,0.020703933747412008,0.020703933747412008,0.020013802622498276,0.01932367149758454,0.018633540372670808,0.018633540372670808,0.01932367149758454,0.020013802622498276,0.020013802622498276,0.020013802622498276,0.01932367149758454,0.01932367149758454,0.01932367149758454,0.01932367149758454,0.020013802622498276,0.020013802622498276,0.018633540372670808,0.018633540372670808,0.01932367149758454,0.020013802622498276,0.018633540372670808,0.018633540372670808,0.020703933747412008
S7_D7 hbo,0.020013802622498276,0.01932367149758454,0.01932367149758454,0.0013802622498274672,0.020013802622498276,0.020013802622498276,0.020013802622498276,0.020013802622498276,0.020013802622498276,0.020013802622498276,0.01932367149758454,0.020013802622498276,0.020013802622498276,0.01932367149758454,0.020013802622498276,0.020013802622498276,0.020013802622498276,0.01932367149758454,0.01932367149758454,0.018633540372670808,0.020013802622498276,0.01932367149758454,0.020013802622498276,0.018633540372670808,0.013112491373360938,0.01932367149758454,0.020013802622498276,0.020013802622498276,0.018633540372670808,0.020013802622498276,0.020013802622498276,0.020013802622498276,0.020013802622498276,0.01932367149758454,0.01932367149758454,0.020013802622498276,0.020013802622498276,0.020013802622498276,0.020013802622498276,0.020013802622498276,0.020013802622498276,0.020013802622498276,0.01932367149758454,0.020013802622498276,0.020013802622498276,0.01932367149758454,0.01932367149758454,0.020013802622498276,0.020013802622498276,0.01932367149758454,0.018633540372670808,0.020013802622498276
S7_D8 hbo,0.02028397565922921,0.0196078431372549,0.018931710615280595,0.001352265043948614,0.02028397565922921,0.02028397565922921,0.02028397565922921,0.02028397565922921,0.0196078431372549,0.02028397565922921,0.0196078431372549,0.02028397565922921,0.02028397565922921,0.0196078431372549,0.02028397565922921,0.0196078431372549,0.02028397565922921,0.0196078431372549,0.018931710615280595,0.018931710615280595,0.02028397565922921,0.018931710615280595,0.0196078431372549,0.018931710615280595,0.012846517917511832,0.0196078431372549,0.02028397565922921,0.0196078431372549,0.018931710615280595,0.02028397565922921,0.02028397565922921,0.02028397565922921,0.0196078431372549,0.018931710615280595,0.018931710615280595,0.0196078431372549,0.02028397565922921,0.02028397565922921,0.02028397565922921,0.0196078431372549,0.0196078431372549,0.0196078431372549,0.018931710615280595,0.02028397565922921,0.02028397565922921,0.018931710615280595,0.018931710615280595,0.0196078431372549,0.02028397565922921,0.018931710615280595,0.018255578093306288,0.02028397565922921
S8_D6 hbo,0.019970414201183433,0.020710059171597635,0.01849112426035503,0.0014792899408284023,0.020710059171597635,0.019970414201183433,0.019970414201183433,0.019970414201183433,0.019230769230769232,0.019970414201183433,0.020710059171597635,0.019970414201183433,0.020710059171597635,0.019970414201183433,0.020710059171597635,0.019230769230769232,0.019970414201183433,0.019970414201183433,0.01849112426035503,0.020710059171597635,0.019970414201183433,0.01849112426035503,0.019230769230769232,0.019970414201183433,0.014053254437869823,0.019970414201183433,0.019970414201183433,0.019230769230769232,0.020710059171597635,0.020710059171597635,0.020710059171597635,0.019970414201183433,0.019230769230769232,0.01849112426035503,0.01849112426035503,0.019230769230769232,0.019970414201183433,0.019970414201183433,0.019970414201183433,0.019230769230769232,0.019230769230769232,0.019230769230769232,0.019230769230769232,0.019970414201183433,0.019970414201183433,0.01849112426035503,0.01849112426035503,0.019230769230769232,0.019970414201183433,0.01849112426035503,0.01849112426035503,0.020710059171597635
S8_D8 hbo,0.01958762886597938,0.01958762886597938,0.01958762886597938,0.002061855670103093,0.01958762886597938,0.01958762886597938,0.01958762886597938,0.01958762886597938,0.01958762886597938,0.01958762886597938,0.01958762886597938,0.01958762886597938,0.01958762886597938,0.01958762886597938,0.01958762886597938,0.01958762886597938,0.01958762886597938,0.01958762886597938,0.01958762886597938,0.01958762886597938,0.01958762886597938,0.01958762886597938,0.01958762886597938,0.01958762886597938,0.018556701030927835,0.01958762886597938,0.01958762886597938,0.01958762886597938,0.01958762886597938,0.01958762886597938,0.01958762886597938,0.01958762886597938,0.01958762886597938,0.01958762886597938,0.01958762886597938,0.01958762886597938,0.01958762886597938,0.01958762886597938,0.01958762886597938,0.01958762886597938,0.01958762886597938,0.01958762886597938,0.01958762886597938,0.01958762886597938,0.01958762886597938,0.01958762886597938,0.01958762886597938,0.01958762886597938,0.01958762886597938,0.01958762886597938,0.01958762886597938,0.01958762886597938
S8_D15 hbo,0.019971469329529243,0.020684736091298145,0.018544935805991442,0.0014265335235378032,0.020684736091298145,0.019971469329529243,0.019971469329529243,0.019971469329529243,0.01925820256776034,0.019971469329529243,0.020684736091298145,0.019971469329529243,0.020684736091298145,0.019971469329529243,0.020684736091298145,0.01925820256776034,0.019971469329529243,0.019971469329529243,0.018544935805991442,0.020684736091298145,0.019971469329529243,0.018544935805991442,0.01925820256776034,0.019971469329529243,0.01355206847360913,0.019971469329529243,0.019971469329529243,0.01925820256776034,0.020684736091298145,0.020684736091298145,0.020684736091298145,0.019971469329529243,0.01925820256776034,0.018544935805991442,0.018544935805991442,0.01925820256776034,0.019971469329529243,0.019971469329529243,0.019971469329529243,0.01925820256776034,0.01925820256776034,0.01925820256776034,0.01925820256776034,0.019971469329529243,0.019971469329529243,0.018544935805991442,0.018544935805991442,0.01925820256776034,0.019971469329529243,0.018544935805991442,0.018544935805991442,0.020684736091298145
S9_D2 hbo,0.02052980132450331,0.019867549668874173,0.019205298013245033,0.0013245033112582781,0.02052980132450331,0.019867549668874173,0.02052980132450331,0.02052980132450331,0.019867549668874173,0.02052980132450331,0.019867549668874173,0.02052980132450331,0.02052980132450331,0.019205298013245033,0.02052980132450331,0.019867549668874173,0.02052980132450331,0.019205298013245033,0.019205298013245033,0.019205298013245033,0.019867549668874173,0.019205298013245033,0.019867549668874173,0.018543046357615896,0.012582781456953643,0.019205298013245033,0.02052980132450331,0.019867549668874173,0.019205298013245033,0.02052980132450331,0.02052980132450331,0.019867549668874173,0.019867549668874173,0.019205298013245033,0.018543046357615896,0.019867549668874173,0.019867549668874173,0.019867549668874173,0.019867549668874173,0.019205298013245033,0.019867549668874173,0.019205298013245033,0.018543046357615896,0.019867549668874173,0.019867549668874173,0.019205298013245033,0.019205298013245033,0.019205298013245033,0.019867549668874173,0.019205298013245033,0.017880794701986755,0.02052980132450331
S9_D9 hbo,0.020666666666666667,0.019333333333333334,0.019333333333333334,0.0013333333333333333,0.02,0.02,0.020666666666666667,0.020666666666666667,0.02,0.020666666666666667,0.019333333333333334,0.020666666666666667,0.02,0.019333333333333334,0.02,0.02,0.020666666666666667,0.019333333333333334,0.019333333333333334,0.018666666666666668,0.02,0.019333333333333334,0.02,0.018666666666666668,0.012666666666666666,0.019333333333333334,0.020666666666666667,0.02,0.018666666666666668,0.02,0.02,0.02,0.02,0.019333333333333334,0.018666666666666668,0.02,0.02,0.02,0.02,0.019333333333333334,0.02,0.019333333333333334,0.018666666666666668,0.02,0.02,0.019333333333333334,0.019333333333333334,0.019333333333333334,0.02,0.019333333333333334,0.018,0.02
S9_D11 hbo,0.01989683124539425,0.021370670596904937,0.018422991893883568,0.0014738393515106854,0.021370670596904937,0.01989683124539425,0.01989683124539425,0.01989683124539425,0.01915991156963891,0.01989683124539425,0.020633750921149593,0.01989683124539425,0.020633750921149593,0.01989683124539425,0.020633750921149593,0.01915991156963891,0.01989683124539425,0.01989683124539425,0.018422991893883568,0.021370670596904937,0.01989683124539425,0.018422991893883568,0.01915991156963891,0.01989683124539425,0.01400147383935151,0.01989683124539425,0.01989683124539425,0.01915991156963891,0.02210759027266028,0.020633750921149593,0.020633750921149593,0.01989683124539425,0.01915991156963891,0.018422991893883568,0.018422991893883568,0.01915991156963891,0.01989683124539425,0.01989683124539425,0.01989683124539425,0.01915991156963891,0.01915991156963891,0.01915991156963891,0.01915991156963891,0.01989683124539425,0.01989683124539425,0.018422991893883568,0.018422991893883568,0.01915991156963891,0.01989683124539425,0.018422991893883568,0.018422991893883568,0.020633750921149593
S10_D9 hbo,0.01995870612525809,0.021335168616655197,0.018582243633860976,0.0013764624913971094,0.021335168616655197,0.01995870612525809,0.01995870612525809,0.01995870612525809,0.019270474879559532,0.01995870612525809,0.02064693737095664,0.01995870612525809,0.02064693737095664,0.01995870612525809,0.02064693737095664,0.019270474879559532,0.01995870612525809,0.01995870612525809,0.018582243633860976,0.02064693737095664,0.01995870612525809,0.018582243633860976,0.019270474879559532,0.019270474879559532,0.01307639366827254,0.01995870612525809,0.01995870612525809,0.019270474879559532,0.02064693737095664,0.02064693737095664,0.02064693737095664,0.01995870612525809,0.019270474879559532,0.018582243633860976,0.018582243633860976,0.019270474879559532,0.01995870612525809,0.01995870612525809,0.01995870612525809,0.019270474879559532,0.019270474879559532,0.019270474879559532,0.019270474879559532,0.01995870612525809,0.01995870612525809,0.018582243633860976,0.018582243633860976,0.019270474879559532,0.01995870612525809,0.018582243633860976,0.018582243633860976,0.02064693737095664
S10_D10 hbo,0.01995870612525809,0.021335168616655197,0.018582243633860976,0.0013764624913971094,0.021335168616655197,0.01995870612525809,0.01995870612525809,0.01995870612525809,0.019270474879559532,0.01995870612525809,0.02064693737095664,0.01995870612525809,0.02064693737095664,0.01995870612525809,0.02064693737095664,0.019270474879559532,0.01995870612525809,0.01995870612525809,0.018582243633860976,0.02064693737095664,0.01995870612525809,0.018582243633860976,0.019270474879559532,0.019270474879559532,0.01307639366827254,0.01995870612525809,0.01995870612525809,0.019270474879559532,0.02064693737095664,0.02064693737095664,0.02064693737095664,0.01995870612525809,0.019270474879559532,0.018582243633860976,0.018582243633860976,0.019270474879559532,0.01995870612525809,0.01995870612525809,0.01995870612525809,0.019270474879559532,0.019270474879559532,0.019270474879559532,0.019270474879559532,0.01995870612525809,0.01995870612525809,0.018582243633860976,0.018582243633860976,0.019270474879559532,0.01995870612525809,0.018582243633860976,0.018582243633860976,0.02064693737095664
S10_D12 hbo,0.020013802622498276,0.020703933747412008,0.018633540372670808,0.0013802622498274672,0.020703933747412008,0.020013802622498276,0.020013802622498276,0.020013802622498276,0.01932367149758454,0.020013802622498276,0.020703933747412008,0.020013802622498276,0.020703933747412008,0.020013802622498276,0.020703933747412008,0.01932367149758454,0.020013802622498276,0.020013802622498276,0.018633540372670808,0.020013802622498276,0.020013802622498276,0.018633540372670808,0.01932367149758454,0.01932367149758454,0.013112491373360938,0.020013802622498276,0.020013802622498276,0.01932367149758454,0.020013802622498276,0.020703933747412008,0.020703933747412008,0.020013802622498276,0.01932367149758454,0.018633540372670808,0.018633540372670808,0.01932367149758454,0.020013802622498276,0.020013802622498276,0.020013802622498276,0.01932367149758454,0.01932367149758454,0.01932367149758454,0.01932367149758454,0.020013802622498276,0.020013802622498276,0.018633540372670808,0.018633540372670808,0.01932367149758454,0.020013802622498276,0.018633540372670808,0.018633540372670808,0.020703933747412008
S11_D9 hbo,0.02028397565922921,0.0196078431372549,0.018931710615280595,0.001352265043948614,0.02028397565922921,0.02028397565922921,0.02028397565922921,0.02028397565922921,0.0196078431372549,0.02028397565922921,0.0196078431372549,0.02028397565922921,0.02028397565922921,0.0196078431372549,0.02028397565922921,0.0196078431372549,0.02028397565922921,0.0196078431372549,0.018931710615280595,0.018931710615280595,0.02028397565922921,0.018931710615280595,0.0196078431372549,0.018931710615280595,0.012846517917511832,0.0196078431372549,0.02028397565922921,0.0196078431372549,0.018931710615280595,0.02028397565922921,0.02028397565922921,0.02028397565922921,0.0196078431372549,0.018931710615280595,0.018931710615280595,0.0196078431372549,0.02028397565922921,0.02028397565922921,0.02028397565922921,0.0196078431372549,0.0196078431372549,0.0196078431372549,0.018931710615280595,0.02028397565922921,0.02028397565922921,0.018931710615280595,0.018931710615280595,0.0196078431372549,0.02028397565922921,0.018931710615280595,0.018255578093306288,0.02028397565922921
S11_D11 hbo,0.020013802622498276,0.01932367149758454,0.01932367149758454,0.0013802622498274672,0.020013802622498276,0.020013802622498276,0.020013802622498276,0.020013802622498276,0.020013802622498276,0.020013802622498276,0.01932367149758454,0.020013802622498276,0.020013802622498276,0.01932367149758454,0.020013802622498276,0.020013802622498276,0.020013802622498276,0.01932367149758454,0.01932367149758454,0.018633540372670808,0.020013802622498276,0.01932367149758454,0.020013802622498276,0.018633540372670808,0.013112491373360938,0.01932367149758454,0.020013802622498276,0.020013802622498276,0.018633540372670808,0.020013802622498276,0.020013802622498276,0.020013802622498276,0.020013802622498276,0.01932367149758454,0.01932367149758454,0.020013802622498276,0.020013802622498276,0.020013802622498276,0.020013802622498276,0.020013802622498276,0.020013802622498276,0.020013802622498276,0.01932367149758454,0.020013802622498276,0.020013802622498276,0.01932367149758454,0.01932367149758454,0.020013802622498276,0.020013802622498276,0.01932367149758454,0.018633540372670808,0.020013802622498276
S11_D12 hbo,0.0198722498225692,0.0198722498225692,0.0191625266146203,0.0014194464158978,0.0198722498225692,0.0198722498225692,0.0198722498225692,0.0198722498225692,0.0198722498225692,0.0198722498225692,0.0198722498225692,0.0198722498225692,0.0198722498225692,0.0198722498225692,0.0198722498225692,0.0198722498225692,0.0198722498225692,0.0198722498225692,0.0191625266146203,0.0191625266146203,0.0198722498225692,0.0191625266146203,0.0198722498225692,0.0191625266146203,0.0134847409510291,0.0198722498225692,0.0198722498225692,0.0198722498225692,0.0191625266146203,0.0198722498225692,0.0198722498225692,0.0198722498225692,0.0198722498225692,0.0191625266146203,0.0191625266146203,0.0198722498225692,0.0198722498225692,0.0198722498225692,0.0198722498225692,0.0198722498225692,0.0198722498225692,0.0198722498225692,0.0198722498225692,0.0198722498225692,0.0198722498225692,0.0191625266146203,0.0191625266146203,0.0198722498225692,0.0198722498225692,0.0191625266146203,0.0191625266146203,0.0198722498225692
S11_D13 hbo,0.02028397565922921,0.0196078431372549,0.018931710615280595,0.001352265043948614,0.02028397565922921,0.02028397565922921,0.02028397565922921,0.02028397565922921,0.0196078431372549,0.02028397565922921,0.0196078431372549,0.02028397565922921,0.02028397565922921,0.0196078431372549,0.02028397565922921,0.0196078431372549,0.02028397565922921,0.0196078431372549,0.018931710615280595,0.018931710615280595,0.02028397565922921,0.018931710615280595,0.0196078431372549,0.018931710615280595,0.012846517917511832,0.0196078431372549,0.02028397565922921,0.0196078431372549,0.018931710615280595,0.02028397565922921,0.02028397565922921,0.02028397565922921,0.0196078431372549,0.018931710615280595,0.018931710615280595,0.0196078431372549,0.02028397565922921,0.02028397565922921,0.02028397565922921,0.0196078431372549,0.0196078431372549,0.0196078431372549,0.018931710615280595,0.02028397565922921,0.02028397565922921,0.018931710615280595,0.018931710615280595,0.0196078431372549,0.02028397565922921,0.018931710615280595,0.018255578093306288,0.02028397565922921
S12_D10 hbo,0.020013802622498276,0.020703933747412008,0.018633540372670808,0.0013802622498274672,0.020703933747412008,0.020013802622498276,0.020013802622498276,0.020013802622498276,0.01932367149758454,0.020013802622498276,0.020703933747412008,0.020013802622498276,0.020703933747412008,0.020013802622498276,0.020703933747412008,0.01932367149758454,0.020013802622498276,0.020013802622498276,0.018633540372670808,0.020013802622498276,0.020013802622498276,0.018633540372670808,0.01932367149758454,0.01932367149758454,0.013112491373360938,0.020013802622498276,0.020013802622498276,0.01932367149758454,0.020013802622498276,0.020703933747412008,0.020703933747412008,0.020013802622498276,0.01932367149758454,0.018633540372670808,0.018633540372670808,0.01932367149758454,0.020013802622498276,0.020013802622498276,0.020013802622498276,0.01932367149758454,0.01932367149758454,0.01932367149758454,0.01932367149758454,0.020013802622498276,0.020013802622498276,0.018633540372670808,0.018633540372670808,0.01932367149758454,0.020013802622498276,0.018633540372670808,0.018633540372670808,0.020703933747412008
S12_D12 hbo,0.020013802622498276,0.020703933747412008,0.018633540372670808,0.0013802622498274672,0.020703933747412008,0.020013802622498276,0.020013802622498276,0.020013802622498276,0.01932367149758454,0.020013802622498276,0.020703933747412008,0.020013802622498276,0.020703933747412008,0.020013802622498276,0.020703933747412008,0.01932367149758454,0.020013802622498276,0.020013802622498276,0.018633540372670808,0.020013802622498276,0.020013802622498276,0.018633540372670808,0.01932367149758454,0.01932367149758454,0.013112491373360938,0.020013802622498276,0.020013802622498276,0.01932367149758454,0.020013802622498276,0.020703933747412008,0.020703933747412008,0.020013802622498276,0.01932367149758454,0.018633540372670808,0.018633540372670808,0.01932367149758454,0.020013802622498276,0.020013802622498276,0.020013802622498276,0.01932367149758454,0.01932367149758454,0.01932367149758454,0.01932367149758454,0.020013802622498276,0.020013802622498276,0.018633540372670808,0.018633540372670808,0.01932367149758454,0.020013802622498276,0.018633540372670808,0.018633540372670808,0.020703933747412008
S12_D14 hbo,0.020013802622498276,0.020703933747412008,0.018633540372670808,0.0013802622498274672,0.020703933747412008,0.020013802622498276,0.020013802622498276,0.020013802622498276,0.01932367149758454,0.020013802622498276,0.020703933747412008,0.020013802622498276,0.020703933747412008,0.020013802622498276,0.020703933747412008,0.01932367149758454,0.020013802622498276,0.020013802622498276,0.018633540372670808,0.020013802622498276,0.020013802622498276,0.018633540372670808,0.01932367149758454,0.01932367149758454,0.013112491373360938,0.020013802622498276,0.020013802622498276,0.01932367149758454,0.020013802622498276,0.020703933747412008,0.020703933747412008,0.020013802622498276,0.01932367149758454,0.018633540372670808,0.018633540372670808,0.01932367149758454,0.020013802622498276,0.020013802622498276,0.020013802622498276,0.01932367149758454,0.01932367149758454,0.01932367149758454,0.01932367149758454,0.020013802622498276,0.020013802622498276,0.018633540372670808,0.018633540372670808,0.01932367149758454,0.020013802622498276,0.018633540372670808,0.018633540372670808,0.020703933747412008
S13_D6 hbo,0.020152883947185545,0.020152883947185545,0.018763029881862403,0.001389854065323141,0.020152883947185545,0.020152883947185545,0.020152883947185545,0.020152883947185545,0.019457956914523976,0.020152883947185545,0.020152883947185545,0.020152883947185545,0.020152883947185545,0.020152883947185545,0.020152883947185545,0.019457956914523976,0.020152883947185545,0.020152883947185545,0.018763029881862403,0.019457956914523976,0.020152883947185545,0.018763029881862403,0.019457956914523976,0.019457956914523976,0.01320361362056984,0.020152883947185545,0.020152883947185545,0.019457956914523976,0.019457956914523976,0.020152883947185545,0.020152883947185545,0.020152883947185545,0.019457956914523976,0.018763029881862403,0.018763029881862403,0.019457956914523976,0.020152883947185545,0.020152883947185545,0.020152883947185545,0.019457956914523976,0.019457956914523976,0.019457956914523976,0.019457956914523976,0.020152883947185545,0.020152883947185545,0.018763029881862403,0.018763029881862403,0.019457956914523976,0.020152883947185545,0.018763029881862403,0.018763029881862403,0.020152883947185545
S13_D11 hbo,0.02028397565922921,0.0196078431372549,0.018931710615280595,0.001352265043948614,0.02028397565922921,0.02028397565922921,0.02028397565922921,0.02028397565922921,0.0196078431372549,0.02028397565922921,0.0196078431372549,0.02028397565922921,0.02028397565922921,0.0196078431372549,0.02028397565922921,0.0196078431372549,0.02028397565922921,0.0196078431372549,0.018931710615280595,0.018931710615280595,0.02028397565922921,0.018931710615280595,0.0196078431372549,0.018931710615280595,0.012846517917511832,0.0196078431372549,0.02028397565922921,0.0196078431372549,0.018931710615280595,0.02028397565922921,0.02028397565922921,0.02028397565922921,0.0196078431372549,0.018931710615280595,0.018931710615280595,0.0196078431372549,0.02028397565922921,0.02028397565922921,0.02028397565922921,0.0196078431372549,0.0196078431372549,0.0196078431372549,0.018931710615280595,0.02028397565922921,0.02028397565922921,0.018931710615280595,0.018931710615280595,0.0196078431372549,0.02028397565922921,0.018931710615280595,0.018255578093306288,0.02028397565922921
S13_D13 hbo,0.020152883947185545,0.020152883947185545,0.018763029881862403,0.001389854065323141,0.020152883947185545,0.020152883947185545,0.020152883947185545,0.020152883947185545,0.019457956914523976,0.020152883947185545,0.020152883947185545,0.020152883947185545,0.020152883947185545,0.020152883947185545,0.020152883947185545,0.019457956914523976,0.020152883947185545,0.020152883947185545,0.018763029881862403,0.019457956914523976,0.020152883947185545,0.018763029881862403,0.019457956914523976,0.019457956914523976,0.01320361362056984,0.020152883947185545,0.020152883947185545,0.019457956914523976,0.019457956914523976,0.020152883947185545,0.020152883947185545,0.020152883947185545,0.019457956914523976,0.018763029881862403,0.018763029881862403,0.019457956914523976,0.020152883947185545,0.020152883947185545,0.020152883947185545,0.019457956914523976,0.019457956914523976,0.019457956914523976,0.019457956914523976,0.020152883947185545,0.020152883947185545,0.018763029881862403,0.018763029881862403,0.019457956914523976,0.020152883947185545,0.018763029881862403,0.018763029881862403,0.020152883947185545
S13_D15 hbo,0.020114942528735632,0.020114942528735632,0.01867816091954023,0.0014367816091954023,0.020114942528735632,0.020114942528735632,0.020114942528735632,0.020114942528735632,0.01939655172413793,0.020114942528735632,0.020114942528735632,0.020114942528735632,0.020114942528735632,0.020114942528735632,0.020114942528735632,0.01939655172413793,0.020114942528735632,0.020114942528735632,0.01867816091954023,0.020114942528735632,0.020114942528735632,0.01867816091954023,0.01939655172413793,0.020114942528735632,0.013649425287356323,0.020114942528735632,0.020114942528735632,0.01939655172413793,0.020114942528735632,0.020114942528735632,0.020114942528735632,0.020114942528735632,0.01939655172413793,0.01867816091954023,0.01867816091954023,0.01939655172413793,0.020114942528735632,0.020114942528735632,0.020114942528735632,0.01939655172413793,0.01939655172413793,0.01939655172413793,0.01939655172413793,0.020114942528735632,0.020114942528735632,0.01867816091954023,0.01867816091954023,0.01939655172413793,0.020114942528735632,0.01867816091954023,0.01867816091954023,0.020114942528735632
S14_D12 hbo,0.020013802622498276,0.020703933747412008,0.018633540372670808,0.0013802622498274672,0.020703933747412008,0.020013802622498276,0.020013802622498276,0.020013802622498276,0.01932367149758454,0.020013802622498276,0.020703933747412008,0.020013802622498276,0.020703933747412008,0.020013802622498276,0.020703933747412008,0.01932367149758454,0.020013802622498276,0.020013802622498276,0.018633540372670808,0.020013802622498276,0.020013802622498276,0.018633540372670808,0.01932367149758454,0.01932367149758454,0.013112491373360938,0.020013802622498276,0.020013802622498276,0.01932367149758454,0.020013802622498276,0.020703933747412008,0.020703933747412008,0.020013802622498276,0.01932367149758454,0.018633540372670808,0.018633540372670808,0.01932367149758454,0.020013802622498276,0.020013802622498276,0.020013802622498276,0.01932367149758454,0.01932367149758454,0.01932367149758454,0.01932367149758454,0.020013802622498276,0.020013802622498276,0.018633540372670808,0.018633540372670808,0.01932367149758454,0.020013802622498276,0.018633540372670808,0.018633540372670808,0.020703933747412008
S14_D13 hbo,0.020013802622498276,0.020703933747412008,0.018633540372670808,0.0013802622498274672,0.020703933747412008,0.020013802622498276,0.020013802622498276,0.020013802622498276,0.01932367149758454,0.020013802622498276,0.020703933747412008,0.020013802622498276,0.020703933747412008,0.020013802622498276,0.020703933747412008,0.01932367149758454,0.020013802622498276,0.020013802622498276,0.018633540372670808,0.020013802622498276,0.020013802622498276,0.018633540372670808,0.01932367149758454,0.01932367149758454,0.013112491373360938,0.020013802622498276,0.020013802622498276,0.01932367149758454,0.020013802622498276,0.020703933747412008,0.020703933747412008,0.020013802622498276,0.01932367149758454,0.018633540372670808,0.018633540372670808,0.01932367149758454,0.020013802622498276,0.020013802622498276,0.020013802622498276,0.01932367149758454,0.01932367149758454,0.01932367149758454,0.01932367149758454,0.020013802622498276,0.020013802622498276,0.018633540372670808,0.018633540372670808,0.01932367149758454,0.020013802622498276,0.018633540372670808,0.018633540372670808,0.020703933747412008
S14_D14 hbo,0.020013802622498276,0.01932367149758454,0.01932367149758454,0.0013802622498274672,0.020013802622498276,0.020013802622498276,0.020013802622498276,0.020013802622498276,0.020013802622498276,0.020013802622498276,0.01932367149758454,0.020013802622498276,0.020013802622498276,0.01932367149758454,0.020013802622498276,0.020013802622498276,0.020013802622498276,0.01932367149758454,0.01932367149758454,0.018633540372670808,0.020013802622498276,0.01932367149758454,0.020013802622498276,0.018633540372670808,0.013112491373360938,0.01932367149758454,0.020013802622498276,0.020013802622498276,0.018633540372670808,0.020013802622498276,0.020013802622498276,0.020013802622498276,0.020013802622498276,0.01932367149758454,0.01932367149758454,0.020013802622498276,0.020013802622498276,0.020013802622498276,0.020013802622498276,0.020013802622498276,0.020013802622498276,0.020013802622498276,0.01932367149758454,0.020013802622498276,0.020013802622498276,0.01932367149758454,0.01932367149758454,0.020013802622498276,0.020013802622498276,0.01932367149758454,0.018633540372670808,0.020013802622498276
S14_D16 hbo,0.02040816326530612,0.01904761904761905,0.019727891156462583,0.0013605442176870747,0.019727891156462583,0.019727891156462583,0.02040816326530612,0.02040816326530612,0.02040816326530612,0.02040816326530612,0.01904761904761905,0.02040816326530612,0.019727891156462583,0.01904761904761905,0.019727891156462583,0.02040816326530612,0.02040816326530612,0.01904761904761905,0.019727891156462583,0.018367346938775512,0.019727891156462583,0.019727891156462583,0.02040816326530612,0.018367346938775512,0.01292517006802721,0.01904761904761905,0.02040816326530612,0.02040816326530612,0.018367346938775512,0.019727891156462583,0.019727891156462583,0.019727891156462583,0.02040816326530612,0.019727891156462583,0.01904761904761905,0.02040816326530612,0.019727891156462583,0.019727891156462583,0.019727891156462583,0.019727891156462583,0.02040816326530612,0.019727891156462583,0.01904761904761905,0.019727891156462583,0.019727891156462583,0.019727891156462583,0.019727891156462583,0.019727891156462583,0.019727891156462583,0.019727891156462583,0.018367346938775512,0.019727891156462583
S15_D13 hbo,0.020152883947185545,0.020152883947185545,0.018763029881862403,0.001389854065323141,0.020152883947185545,0.020152883947185545,0.020152883947185545,0.020152883947185545,0.019457956914523976,0.020152883947185545,0.020152883947185545,0.020152883947185545,0.020152883947185545,0.020152883947185545,0.020152883947185545,0.019457956914523976,0.020152883947185545,0.020152883947185545,0.018763029881862403,0.019457956914523976,0.020152883947185545,0.018763029881862403,0.019457956914523976,0.019457956914523976,0.01320361362056984,0.020152883947185545,0.020152883947185545,0.019457956914523976,0.019457956914523976,0.020152883947185545,0.020152883947185545,0.020152883947185545,0.019457956914523976,0.018763029881862403,0.018763029881862403,0.019457956914523976,0.020152883947185545,0.020152883947185545,0.020152883947185545,0.019457956914523976,0.019457956914523976,0.019457956914523976,0.019457956914523976,0.020152883947185545,0.020152883947185545,0.018763029881862403,0.018763029881862403,0.019457956914523976,0.020152883947185545,0.018763029881862403,0.018763029881862403,0.020152883947185545
S15_D15 hbo,0.020013802622498276,0.020703933747412008,0.018633540372670808,0.0013802622498274672,0.020703933747412008,0.020013802622498276,0.020013802622498276,0.020013802622498276,0.01932367149758454,0.020013802622498276,0.020703933747412008,0.020013802622498276,0.020703933747412008,0.020013802622498276,0.020703933747412008,0.01932367149758454,0.020013802622498276,0.020013802622498276,0.018633540372670808,0.020013802622498276,0.020013802622498276,0.018633540372670808,0.01932367149758454,0.01932367149758454,0.013112491373360938,0.020013802622498276,0.020013802622498276,0.01932367149758454,0.020013802622498276,0.020703933747412008,0.020703933747412008,0.020013802622498276,0.01932367149758454,0.018633540372670808,0.018633540372670808,0.01932367149758454,0.020013802622498276,0.020013802622498276,0.020013802622498276,0.01932367149758454,0.01932367149758454,0.01932367149758454,0.01932367149758454,0.020013802622498276,0.020013802622498276,0.018633540372670808,0.018633540372670808,0.01932367149758454,0.020013802622498276,0.018633540372670808,0.018633540372670808,0.020703933747412008
S15_D16 hbo,0.020013802622498276,0.01932367149758454,0.01932367149758454,0.0013802622498274672,0.020013802622498276,0.020013802622498276,0.020013802622498276,0.020013802622498276,0.020013802622498276,0.020013802622498276,0.01932367149758454,0.020013802622498276,0.020013802622498276,0.01932367149758454,0.020013802622498276,0.020013802622498276,0.020013802622498276,0.01932367149758454,0.01932367149758454,0.018633540372670808,0.020013802622498276,0.01932367149758454,0.020013802622498276,0.018633540372670808,0.013112491373360938,0.01932367149758454,0.020013802622498276,0.020013802622498276,0.018633540372670808,0.020013802622498276,0.020013802622498276,0.020013802622498276,0.020013802622498276,0.01932367149758454,0.01932367149758454,0.020013802622498276,0.020013802622498276,0.020013802622498276,0.020013802622498276,0.020013802622498276,0.020013802622498276,0.020013802622498276,0.01932367149758454,0.020013802622498276,0.020013802622498276,0.01932367149758454,0.01932367149758454,0.020013802622498276,0.020013802622498276,0.01932367149758454,0.018633540372670808,0.020013802622498276
S16_D14 hbo,0.019823788546255508,0.019823788546255508,0.01908957415565345,0.0014684287812041115,0.019823788546255508,0.019823788546255508,0.019823788546255508,0.019823788546255508,0.019823788546255508,0.019823788546255508,0.019823788546255508,0.019823788546255508,0.019823788546255508,0.019823788546255508,0.019823788546255508,0.019823788546255508,0.019823788546255508,0.019823788546255508,0.01908957415565345,0.019823788546255508,0.019823788546255508,0.01908957415565345,0.019823788546255508,0.019823788546255508,0.013950073421439061,0.019823788546255508,0.019823788546255508,0.019823788546255508,0.019823788546255508,0.019823788546255508,0.019823788546255508,0.019823788546255508,0.019823788546255508,0.01908957415565345,0.01908957415565345,0.019823788546255508,0.019823788546255508,0.019823788546255508,0.019823788546255508,0.019823788546255508,0.019823788546255508,0.019823788546255508,0.019823788546255508,0.019823788546255508,0.019823788546255508,0.01908957415565345,0.01908957415565345,0.019823788546255508,0.019823788546255508,0.01908957415565345,0.01908957415565345,0.019823788546255508
S16_D16 hbo,0.01995870612525809,0.021335168616655197,0.018582243633860976,0.0013764624913971094,0.021335168616655197,0.01995870612525809,0.01995870612525809,0.01995870612525809,0.019270474879559532,0.01995870612525809,0.02064693737095664,0.01995870612525809,0.02064693737095664,0.01995870612525809,0.02064693737095664,0.019270474879559532,0.01995870612525809,0.01995870612525809,0.018582243633860976,0.02064693737095664,0.01995870612525809,0.018582243633860976,0.019270474879559532,0.019270474879559532,0.01307639366827254,0.01995870612525809,0.01995870612525809,0.019270474879559532,0.02064693737095664,0.02064693737095664,0.02064693737095664,0.01995870612525809,0.019270474879559532,0.018582243633860976,0.018582243633860976,0.019270474879559532,0.01995870612525809,0.01995870612525809,0.01995870612525809,0.019270474879559532,0.019270474879559532,0.019270474879559532,0.019270474879559532,0.01995870612525809,0.01995870612525809,0.018582243633860976,0.018582243633860976,0.019270474879559532,0.01995870612525809,0.018582243633860976,0.018582243633860976,0.02064693737095664
