,S1_D1 hbo,S1_D3 hbo,S2_D1 hbo,S2_D2 hbo,S2_D4 hbo,S3_D1 hbo,S3_D3 hbo,S3_D4 hbo,S3_D5 hbo,S4_D2 hbo,S4_D4 hbo,S4_D6 hbo,S4_D11 hbo,S5_D3 hbo,S5_D5 hbo,S5_D7 hbo,S6_D4 hbo,S6_D5 hbo,S6_D6 hbo,S6_D8 hbo,S7_D5 hbo,S7_D7 hbo,S7_D8 hbo,S8_D6 hbo,S8_D8 hbo,S8_D15 hbo,S9_D2 hbo,S9_D9 hbo,S9_D11 hbo,S10_D9 hbo,S10_D10 hbo,S10_D12 hbo,S11_D9 hbo,S11_D11 hbo,S11_D12 hbo,S11_D13 hbo,S12_D10 hbo,S12_D12 hbo,S12_D14 hbo,S13_D6 hbo,S13_D11 hbo,S13_D13 hbo,S13_D15 hbo,S14_D12 hbo,S14_D13 hbo,S14_D14 hbo,S14_D16 hbo,S15_D13 hbo,S15_D15 hbo,S15_D16 hbo,S16_D14 hbo,S16_D16 hbo
S1_D1 hbo,0.03935405342808005,0.01977928023377865,0.01021180030257186,0.03283939544762402,0.030454301300467657,0.009077155824508321,0.032140868391096304,0.00416036308623298,0.01884914279519236,0.01021180030257186,0.00869894099848714,0.009077155824508321,0.0,0.022164374380935013,0.022368881420412268,0.029697871648425297,0.009833585476550681,0.028883539400868293,0.032140868391096304,0.029697871648425297,0.02074021692529826,0.034904177364273856,0.03327551286915985,0.01059001512859304,0.037347174106944867,0.015039891192399237,0.019721377638264006,0.03452596253825267,0.0018910741301059002,0.013905246714335698,0.02167035436388455,0.009077155824508321,0.018528830564685822,0.00680786686838124,0.0113464447806354,0.0113464447806354,0.009455370650529501,0.00869894099848714,0.030890418722003477,0.01059001512859304,0.0,0.00832072617246596,0.006051437216338881,0.01059001512859304,0.02437576074154745,0.027254874905754286,0.034904177364273856,0.009455370650529501,0.03452596253825267,0.033333415464674485,0.015476008613935058,0.03571850961183086
S1_D3 hbo,0.014558031196046914,0.024834543866960372,0.020415351947768452,0.020239849377865094,0.021818132206147922,0.01771459685261257,0.02136232164473815,0.017292894564505567,0.025010046436863727,0.019047920263539124,0.02027519795201524,0.017398940286956002,0.009224737552340696,0.025957016133833423,0.024518887301303804,0.022800450477267767,0.019959541386358675,0.022624947907364412,0.02136232164473815,0.022309291341707845,0.021502475640491358,0.02199363477605128,0.021818132206147922,0.017890099422515925,0.018030253418269138,0.019959541386358675,0.021222167648984935,0.021502475640491358,0.00883962413923121,0.019292879680895398,0.021818132206147922,0.01771459685261257,0.022800450477267767,0.016732278581492725,0.01771459685261257,0.01771459685261257,0.016767627155642874,0.018205755988172492,0.021502475640491358,0.017890099422515925,0.004489889067492211,0.01771459685261257,0.015749960310372884,0.0183459099839257,0.017398940286956002,0.02213378877180449,0.016451970589986306,0.01743428886110615,0.020871162509178226,0.02055550594352166,0.018977223115238834,0.020239849377865094
S2_D1 hbo,0.010731319554848967,0.02158576987246319,0.023970507551318517,0.018674832352730694,0.020440057418926634,0.020130301112596942,0.019557444885828668,0.01884742590053841,0.02361690125824906,0.020837513698735856,0.02273428872515109,0.02008645112585718,0.010503650423696111,0.02282198869863062,0.024367963831127736,0.020837513698735856,0.022690438738411325,0.02088136368547562,0.019557444885828668,0.020440057418926634,0.021322669952024607,0.02039620743218687,0.020440057418926634,0.02088136368547562,0.015585688486887801,0.021676276245094064,0.017128857220233575,0.01999875115237765,0.008960481690350337,0.020130301112596942,0.01968899484604796,0.020130301112596942,0.019732844832787724,0.01814301971355084,0.021322669952024607,0.021322669952024607,0.019247688579498972,0.020130301112596942,0.020440057418926634,0.02088136368547562,0.003884056425461337,0.019732844832787724,0.016950650874123178,0.022205282485122577,0.015144382220338816,0.02088136368547562,0.013379157154142876,0.019159988606019446,0.019557444885828668,0.01911613861927968,0.020440057418926634,0.018674832352730694
S2_D2 hbo,0.020723053277830358,0.0193934108364812,0.016779668824805475,0.02630964545660131,0.02521085825802183,0.01528041844999288,0.025534369686665045,0.0107826673255551,0.01984517517777424,0.016779668824805475,0.01528041844999288,0.01565523104369603,0.006659728794820467,0.020841360046233867,0.022417562168636353,0.024836045664318677,0.016404856231102327,0.024486883653145494,0.025534369686665045,0.024836045664318677,0.021344425552586834,0.027007969478947676,0.026283994874071345,0.017154481418508623,0.024189022807032237,0.019275104068077694,0.01944471200154113,0.02625834429154138,0.007137143718643471,0.0177758536932651,0.020892661211293795,0.01528041844999288,0.01906989940783798,0.013406355481477138,0.017529294012211774,0.017529294012211774,0.01565523104369603,0.01528041844999288,0.02521085825802183,0.017154481418508623,0.0003748125937031484,0.014905605856289732,0.012281917700367694,0.01643050681363229,0.020322590101597246,0.02413772164197231,0.022443212751166317,0.016030043637399176,0.02625834429154138,0.025185207675491865,0.018874640891844582,0.026283994874071345
S2_D4 hbo,0.019096534415447047,0.01958093736177087,0.0175627920841587,0.02473916764428717,0.025296170932938438,0.016412485335692444,0.02421582014346982,0.011427822759005328,0.02017424082158586,0.01724931246033425,0.015402090505221455,0.016412485335692444,0.006896551724137931,0.020974767775063945,0.022718377983345195,0.024529299767294267,0.01623891762986326,0.024529299767294267,0.02421582014346982,0.024529299767294267,0.02209141873569629,0.025679606515760525,0.025993086139584978,0.01794622766698079,0.022544810277516012,0.01989706136892513,0.018780410408292786,0.025296170932938438,0.00630589264765275,0.018746754620458873,0.021498115275881302,0.016412485335692444,0.019337413696944056,0.014111871838759928,0.01871309883262496,0.01871309883262496,0.01648244129469008,0.016029049752870356,0.025296170932938438,0.01794622766698079,0.0,0.015645614170048273,0.013345000673115757,0.01637882954785853,0.019653537704098313,0.024599255726291902,0.020977412158393754,0.015855482047041174,0.024982691309113986,0.02428577610246745,0.019513625786103043,0.02473916764428717
S3_D1 hbo,0.010443864229765013,0.019216964291386356,0.021827930348827608,0.018655543061881802,0.020936564959692018,0.021870017088804608,0.020003112830579428,0.016170837224371556,0.02095760832968052,0.02137172596926556,0.02002415620056793,0.021827930348827608,0.010927861739500548,0.02008728631053344,0.02228413472838965,0.02137172596926556,0.01956795182100589,0.021827930348827608,0.020003112830579428,0.02137172596926556,0.021848973718816108,0.020915521589703518,0.020936564959692018,0.021827930348827608,0.015462112404947496,0.021827930348827608,0.017371103403149676,0.020480360580129975,0.008997827371309866,0.021870017088804608,0.02095760832968052,0.021870017088804608,0.020999695069657525,0.0196731686709484,0.021848973718816108,0.021848973718816108,0.020045199570556435,0.021413812709242565,0.020480360580129975,0.021827930348827608,0.0004351610095735422,0.021413812709242565,0.01836768564222777,0.018655543061881802,0.01500590802538545,0.021392769339254065,0.013181090507137276,0.02002415620056793,0.01956795182100589,0.019111747441443845,0.020936564959692018,0.018655543061881802
S3_D3 hbo,0.019426325521918558,0.01972606356515374,0.017089748023009638,0.024978252367117773,0.024978252367117773,0.015581452397066951,0.025304836299188317,0.011433639425724569,0.0202546073948848,0.017466821929495308,0.01595852630355262,0.01595852630355262,0.007285826454382185,0.021133379242266166,0.022416070884968567,0.025355326273603446,0.016763164090939094,0.024651668435047232,0.025304836299188317,0.024978252367117773,0.021385829114341812,0.026335078069815075,0.02563142023125886,0.017466821929495308,0.023018748774694522,0.01985388940281936,0.01950045958191346,0.025958004163329402,0.007211692394387288,0.017968519870391005,0.020857285284610755,0.015581452397066951,0.019449969607498327,0.013696082864638595,0.017466821929495308,0.017466821929495308,0.01595852630355262,0.015581452397066951,0.024978252367117773,0.017466821929495308,0.0007541478129713424,0.015204378490581281,0.012564861145181582,0.016436580158868553,0.019426325521918558,0.023998500570906148,0.021385829114341812,0.016386090184453424,0.02563142023125886,0.024978252367117773,0.01904925161543289,0.025304836299188317
S3_D4 hbo,0.00909090909090909,0.022329609038844768,0.021141106277042028,0.015607925745507208,0.017056151668751234,0.017780264630373247,0.017158484988120958,0.032050077498040105,0.02739839977019886,0.02217221919677321,0.02760306640893831,0.024037558123530083,0.01209747398280082,0.024139891442899804,0.021141106277042028,0.018709044230734703,0.02894895901281261,0.021141106277042028,0.017158484988120958,0.017882597949742972,0.020314659996050293,0.017520541468931963,0.017056151668751234,0.018244654430553977,0.013073530379830162,0.019071100711545712,0.017622874788301685,0.01669409518794023,0.012506807260279711,0.021038772957672307,0.017418208149562242,0.021400829438483312,0.020259603473348452,0.01943315719235672,0.022849055361727336,0.023211111842538344,0.023211111842538344,0.02331344516190807,0.021038772957672307,0.022589332200286055,0.0077527962130687425,0.022951388681097064,0.01922849055361727,0.01959054703442828,0.01633203870712922,0.017418208149562242,0.01126324797577513,0.017984931269112693,0.01633203870712922,0.015969982226318215,0.017056151668751234,0.015607925745507208
S3_D5 hbo,0.013697996112159763,0.02197978001102762,0.01978783902892537,0.01906792451311442,0.020261241935548784,0.017277948379462865,0.02008616838453396,0.01962534260082828,0.02694774356353158,0.019859277087098087,0.02349104710082224,0.020261241935548784,0.008249586464198464,0.02371793839825812,0.02336779129622847,0.021104412255953508,0.02378937645643083,0.02336779129622847,0.02008616838453396,0.020682827095751147,0.02264787678041752,0.020384497740142553,0.020261241935548784,0.017401204184056634,0.016979619023854274,0.019314436122301958,0.01852308354831829,0.019962912579940192,0.007970877420341534,0.02145455935798315,0.020559571291157375,0.020261241935548784,0.020436315486563605,0.015170022578451063,0.020559571291157375,0.020559571291157375,0.019962912579940192,0.020559571291157375,0.023542864847243293,0.020384497740142553,0.004371304841286771,0.019839656775346423,0.015098584520278346,0.018471265801897233,0.01906792451311442,0.020559571291157375,0.015487972245811315,0.01692780127743322,0.0196645832243316,0.01936625386872301,0.018471265801897233,0.01906792451311442
S4_D2 hbo,0.010638297872340425,0.01785756501182033,0.02022163120567376,0.018138297872340427,0.01980496453900709,0.019039598108747044,0.01897163120567376,0.01718282111899133,0.021516942474389282,0.02890366430260047,0.024410953506698186,0.02693360914105595,0.016992710795902286,0.01864558707643814,0.020615642237982665,0.020198975571315995,0.020660953506698186,0.022304964539007092,0.01897163120567376,0.01980496453900709,0.021888297872340423,0.019782308904649333,0.01980496453900709,0.02022163120567376,0.015221631205673759,0.021009653270291567,0.01658490937746257,0.019388297872340428,0.014379432624113475,0.021122931442080377,0.019039598108747044,0.021122931442080377,0.01864558707643814,0.01706954294720252,0.022304964539007092,0.022304964539007092,0.02070626477541371,0.021122931442080377,0.021888297872340423,0.022304964539007092,0.001970055161544523,0.02072892040977147,0.01713750985027581,0.018138297872340427,0.016888297872340426,0.02022163120567376,0.013138297872340426,0.018577620173364853,0.01897163120567376,0.018554964539007093,0.01980496453900709,0.018138297872340427
S4_D4 hbo,0.010159010600706713,0.019368759078008682,0.02157723964337971,0.01697203103976803,0.018107534446278252,0.017665838333204044,0.017792228288345643,0.02296418550033035,0.025299056020842974,0.02435313754704515,0.030787656850603064,0.02574075213391718,0.01274331738189561,0.021009153575163905,0.0211987385078763,0.01899092667242666,0.026182448246991383,0.0211987385078763,0.017792228288345643,0.018549230559352457,0.020378541259298687,0.01817072942384905,0.018107534446278252,0.018549230559352457,0.014322523091244186,0.01899092667242666,0.015646942700545417,0.01772903331077484,0.011860593885668583,0.021072348552734703,0.017665838333204044,0.021072348552734703,0.017665838333204044,0.017917949513565855,0.02227104693681572,0.02227104693681572,0.021829350823741517,0.023721856501258548,0.021892545801312314,0.021955740778883116,0.004794793536324072,0.021072348552734703,0.01880067300979288,0.02264954807231913,0.018864536717285062,0.020378541259298687,0.012430017413727151,0.017792228288345643,0.017350532175271438,0.01697203103976803,0.020378541259298687,0.01697203103976803
S4_D6 hbo,0.010416666666666666,0.016952053894356126,0.019556220561022793,0.017229687105727982,0.01874369164774161,0.018632638363192868,0.018420717154512573,0.02002540426024056,0.02285167749600471,0.02685879542013626,0.025556712086802928,0.02934172344183699,0.014549623075952561,0.017820109449911685,0.0199347216965262,0.019611747203297166,0.022907204138279083,0.022584229645050045,0.018420717154512573,0.019177719425519386,0.02215020186727227,0.018799218290015983,0.01874369164774161,0.019556220561022793,0.014580179157204137,0.019990248338800573,0.01587207713012028,0.018365190512238203,0.012934750609807385,0.022039148582723527,0.01825413722768946,0.022417649718226934,0.01819861058541509,0.017330555029859536,0.024799709815796114,0.024799709815796114,0.023931654260240562,0.023174651989233748,0.022907204138279083,0.023719733051560266,0.0013020833333333333,0.022796150853730338,0.017542476238539828,0.017229687105727982,0.01760818824123139,0.019122192783245014,0.012687673479687106,0.017986689376734796,0.017986689376734796,0.01760818824123139,0.01874369164774161,0.017229687105727982
S4_D11 hbo,0.0,0.02647075887676955,0.018406242747737292,0.008093525179856115,0.009892086330935251,0.010341726618705036,0.01705732188442794,0.05066430726386632,0.02647075887676955,0.049344395451380835,0.045297632861452775,0.024251566488744488,0.057408911580413086,0.02647075887676955,0.018406242747737292,0.02602111858899977,0.03318635414249246,0.018406242747737292,0.01705732188442794,0.01795660245996751,0.010341726618705036,0.017506962172197726,0.009892086330935251,0.018406242747737292,0.0049460431654676255,0.02647075887676955,0.024672197725690417,0.009442446043165468,0.044398352285913205,0.010341726618705036,0.010341726618705036,0.010341726618705036,0.03453527500580181,0.02647075887676955,0.010341726618705036,0.010341726618705036,0.009892086330935251,0.018406242747737292,0.009892086330935251,0.018406242747737292,0.04838709677419355,0.018406242747737292,0.010341726618705036,0.008093525179856115,0.0044964028776978415,0.010341726618705036,0.002697841726618705,0.0251218380134602,0.008992805755395683,0.0085431654676259,0.009892086330935251,0.008093525179856115
S5_D3 hbo,0.015136195798228773,0.024064629777464028,0.020130279978799813,0.02058413768684863,0.02209745487813192,0.017557503304282043,0.021643597170083108,0.0178590671478493,0.025427027597627515,0.01831457424793221,0.02028174914726432,0.017254839866025384,0.008323656900066635,0.027091539058702964,0.024367568114393036,0.023005720091574245,0.02179506633854761,0.02285425092310974,0.021643597170083108,0.022551587484853083,0.021189464563361946,0.022248924046596424,0.02209745487813192,0.017708972472746547,0.018465493619052017,0.019676422270751,0.019978810810335312,0.021794791439875262,0.007870348989362522,0.019070820495565334,0.021794791439875262,0.017557503304282043,0.021946260608339766,0.016195105484118556,0.017557503304282043,0.017557503304282043,0.016649512989512068,0.018011635911003205,0.021794791439875262,0.017708972472746547,0.004389032202730073,0.017557503304282043,0.014832707663955065,0.018768157057308676,0.017557503304282043,0.02240011831638858,0.016952176427768723,0.01725511476469773,0.021189464563361946,0.020886801125105284,0.018768157057308676,0.02058413768684863
S5_D5 hbo,0.01556766436654923,0.022878629143760043,0.020659553640673817,0.021362899395525405,0.022972686903574343,0.017524213119657676,0.021625426145503182,0.014938729842046814,0.023760267153507666,0.01846528188103732,0.018549516376119055,0.017261686369679903,0.008167799043508712,0.02364140565024364,0.025226389414842856,0.022972686903574343,0.018990335380992866,0.02291325615194233,0.021625426145503182,0.02259129865033254,0.02259129865033254,0.023032117655206352,0.022972686903574343,0.018405851129405307,0.019109196884256892,0.020778415143937842,0.01939652737768439,0.022650729401964553,0.007177122795229626,0.019515388880948416,0.02176909139221693,0.017524213119657676,0.021328272387343118,0.015295314351838892,0.019109196884256892,0.019109196884256892,0.01661777136646033,0.01720225561804789,0.022650729401964553,0.018405851129405307,0.003016479017752113,0.01682086736480609,0.014151149592113492,0.018727808631015093,0.018787239382647106,0.02291325615194233,0.017499409376207954,0.017058590371334142,0.02200681439874498,0.021303468643893392,0.020015638637454244,0.021362899395525405
S5_D7 hbo,0.01794543161946477,0.02022879232823984,0.017876993015114563,0.023470293497917807,0.02469804058201848,0.01637549151361306,0.024084167039968143,0.012621737759859308,0.02080948351666584,0.018320806994840143,0.016205431951288304,0.016750866888988435,0.008185671859705009,0.02159341662104093,0.022924858560217677,0.025073415957393857,0.016649245931013888,0.02469804058201848,0.024084167039968143,0.02469804058201848,0.02193560964279196,0.025073415957393857,0.02500497735304365,0.018252368390489937,0.021321736100741624,0.020537802996366532,0.01913792245283958,0.02469804058201848,0.007300117797355367,0.018660926119489656,0.02135491845436597,0.01637549151361306,0.019990294161564878,0.014498614636736185,0.018252368390489937,0.018252368390489937,0.0161369933469381,0.01637549151361306,0.02439110381099331,0.018252368390489937,0.0011261261261261261,0.016000116138237687,0.013372488510610058,0.016035372388963548,0.018866241932540273,0.02439110381099331,0.01978705224561578,0.01658080732666368,0.024084167039968143,0.023777230268942975,0.019411676870240407,0.023470293497917807
S6_D4 hbo,0.010317460317460317,0.020192609323044106,0.021781479390175044,0.01743208482338917,0.018222598657381267,0.017428947863730473,0.018224167137210617,0.025321538365016626,0.027313507748290354,0.021389359432837693,0.02691981931112366,0.02335937009850053,0.009492439927222535,0.023753058535667233,0.021386222473178996,0.019016249451032058,0.03166447079490558,0.021781479390175044,0.018224167137210617,0.018619424054206662,0.020989397076353597,0.018619424054206662,0.018222598657381267,0.018619424054206662,0.01466528640441684,0.019016249451032058,0.01624160863291298,0.018222598657381267,0.008708200012547839,0.021383085513520295,0.017825773260555868,0.02138151703369095,0.017428947863730473,0.015841646276428884,0.02375619549532593,0.02375619549532593,0.02335937009850053,0.022172030867683042,0.022570424744337788,0.022967250141163187,0.005539870757262061,0.021379948553861598,0.015835372357111487,0.021779910910345694,0.01782734174038522,0.018222598657381267,0.012689001819436602,0.018224167137210617,0.01782734174038522,0.01743208482338917,0.018222598657381267,0.01743208482338917
S6_D5 hbo,0.017146323412308068,0.019306354344717516,0.017333902244388178,0.022228198059400104,0.02363982990581456,0.016107932987728384,0.022792850797965884,0.013936404601366238,0.022226281817074655,0.018840281628005412,0.01761431237134562,0.018461291479194293,0.007247654306477836,0.02062515489625464,0.022322945596602885,0.024016903812300233,0.018463207721519742,0.025616114490794796,0.022792850797965884,0.02363982990581456,0.023357503536531668,0.023734577443017338,0.02363982990581456,0.017710976150873848,0.020251913474419868,0.019876755810259647,0.01836654394199151,0.023357503536531668,0.0065920865153601725,0.020532323601377307,0.02043757606417453,0.01836654394199151,0.019401101881920298,0.014222563455300027,0.020251913474419868,0.020251913474419868,0.01789663874062851,0.01836654394199151,0.025616114490794796,0.019969587105136976,0.0007541478129713424,0.017989470035505842,0.014220647212974578,0.01563994402869083,0.020251913474419868,0.023357503536531668,0.018840281628005412,0.016109849230053833,0.022792850797965884,0.022510524428682996,0.018745534090802634,0.022228198059400104
S6_D6 hbo,0.01966852947675511,0.019627158933944386,0.016963869401470457,0.025220456321954327,0.025220456321954327,0.015473556435747653,0.025547040254024867,0.011375195780009948,0.02013772010345556,0.017336447642901157,0.015846134677178353,0.015846134677178353,0.007276835124272244,0.021025483280946868,0.022281200933319447,0.025593034563385027,0.016637285469399913,0.024893872389883782,0.025547040254024867,0.025220456321954327,0.021255454827747662,0.026572786359596652,0.025873624186095408,0.017336447642901157,0.023260952729531072,0.019714523786115268,0.01939256362059416,0.026200208118165952,0.007180222739002493,0.017851632578961767,0.020744893658236487,0.015473556435747653,0.019346569311234,0.013610665228594152,0.017336447642901157,0.017336447642901157,0.015846134677178353,0.015473556435747653,0.024847878080523626,0.017336447642901157,0.0007451564828614009,0.015100978194316952,0.01249293050430205,0.016310701537329372,0.01929595123532441,0.023868126284312,0.021628033069178362,0.016264707227969213,0.025873624186095408,0.025220456321954327,0.01892337299389371,0.025547040254024867
S6_D8 hbo,0.017994689021663346,0.020266160012666352,0.017924551886202844,0.023519550900116384,0.02474729798421706,0.01641625626026016,0.02413342444216672,0.012268443288917777,0.020853645325533528,0.017994689021663346,0.015872519853670324,0.01679333016674583,0.007813693546550225,0.02163418136768803,0.02297581449352655,0.025124371890702733,0.016696804802102172,0.02474729798421706,0.02413342444216672,0.02474729798421706,0.02198486704499054,0.025124371890702733,0.02505423475524223,0.018301625792688514,0.0213709935029402,0.0205904574607857,0.01917868719948668,0.02474729798421706,0.006936632139752062,0.018705087928357345,0.021397381732123362,0.01641625626026016,0.020029360377101686,0.014530886727831805,0.018301625792688514,0.018301625792688514,0.01617945662469549,0.01641625626026016,0.024440361213191892,0.018301625792688514,0.0007541478129713424,0.016039182353774488,0.013399665008374792,0.016082931260051832,0.018915499334738854,0.024440361213191892,0.01983630964781436,0.016626667666641667,0.02413342444216672,0.023826487671141552,0.01945923574132869,0.023519550900116384
S7_D5 hbo,0.015024588740488143,0.019610803258501466,0.018475103406902213,0.02077906444381295,0.02237752991695873,0.017571279719617316,0.021032648163935463,0.014540115563133466,0.023072171702819614,0.019753875785418838,0.01821066590887563,0.019555547661898896,0.007738743645606391,0.020382408196773075,0.023016916106217044,0.021991727447822927,0.018662577752518075,0.024549272204856178,0.021032648163935463,0.021991727447822927,0.025188658394114487,0.022443639291465377,0.02237752991695873,0.018475103406902213,0.01854121278140886,0.020459371349183797,0.01839814025449149,0.022057836822329577,0.006790518139622999,0.02179339932430299,0.021154013135044676,0.019809131382021408,0.02063599191689558,0.015322574279309147,0.021418450633071264,0.021418450633071264,0.018916161472640587,0.019489438287392254,0.024295688484733666,0.020712955069306305,0.00038580246913580245,0.01910363581825645,0.015443939250418363,0.01655694483912728,0.020459371349183797,0.022311420542452085,0.01694274730826308,0.01674441918474314,0.021418450633071264,0.020712955069306305,0.020073568880047993,0.02077906444381295
S7_D7 hbo,0.020724556134796727,0.019471316263419906,0.017042344864676758,0.02535132973134207,0.02523563214494738,0.015577143399475293,0.02517778335175004,0.011547839370171264,0.0200111630093123,0.017408645230977127,0.015634992192672635,0.01594344376577566,0.007518535340867234,0.020820820142226682,0.022093267620719812,0.02523563214494738,0.016425441718470712,0.024560880205543992,0.02517778335175004,0.024869331778647016,0.0211100641082134,0.026893587596857185,0.026527287230556817,0.017408645230977127,0.023751223072629613,0.019683503829092973,0.018970110703608545,0.02616098686425645,0.006882424587544884,0.01785200199759114,0.020570217362321,0.015577143399475293,0.019220713483514222,0.013745641567973463,0.01777494559727749,0.01777494559727749,0.01594344376577566,0.015577143399475293,0.02517778335175004,0.017408645230977127,0.0007326007326007326,0.015210843033174926,0.012646740469072363,0.015808538572264667,0.019008751889689583,0.02357767669303758,0.021900513634011475,0.016059141352170347,0.025852535291153427,0.024869331778647016,0.018893054303294896,0.025601932511247746
S7_D8 hbo,0.020216834819685912,0.019299124703480167,0.017383475212443322,0.025425168153019248,0.025272216466984958,0.016234930036333063,0.024506519682911447,0.011257900939855268,0.019911400624568358,0.017077102663423716,0.015239336546257094,0.016234930036333063,0.006740196078431373,0.020677566585592888,0.02243838768279134,0.024506519682911447,0.016081509173347747,0.024506519682911447,0.024506519682911447,0.024506519682911447,0.022132015133771735,0.026267809957060927,0.026267809957060927,0.017766323604480078,0.023204084466864845,0.01968103474161487,0.018532958742455634,0.02588496156502417,0.006203457646458277,0.018532489565504608,0.021213366663663934,0.016234930036333063,0.019069227997477706,0.013937839684112541,0.018532020388553585,0.018532020388553585,0.01631140587935021,0.01585208164429631,0.025272216466984958,0.017766323604480078,0.0,0.015469233252259556,0.013172142900039036,0.016234460859382037,0.01945113803561241,0.02427662297690899,0.021672221721766808,0.01569866078131099,0.025578589016004565,0.024582995525928596,0.01929818634957812,0.025348692310002103
S8_D6 hbo,0.010736196319018405,0.019414539821170976,0.021715153318103492,0.01897041406833222,0.021257696776474946,0.020638867528443697,0.019885327151589312,0.01634705515859429,0.02094828215245932,0.02164113235929703,0.019575912527573684,0.020564846569637234,0.011671807205922799,0.020181410986815147,0.022556045442554122,0.02164113235929703,0.019885327151589312,0.021715153318103492,0.019885327151589312,0.021257696776474946,0.02263006640136058,0.021183675817668488,0.021257696776474946,0.021715153318103492,0.015768218276932405,0.022482024483747663,0.017510692695850337,0.020800240234846404,0.009088440662554235,0.02102230311126578,0.020564846569637234,0.020638867528443697,0.020638867528443697,0.01910512519715535,0.02217260985973204,0.02217260985973204,0.019649933486380146,0.020638867528443697,0.020800240234846404,0.021715153318103492,0.0011503067484662577,0.020255431945621606,0.017571382865867007,0.01897041406833222,0.015310761735303859,0.021715153318103492,0.013480935568789678,0.01995934811039577,0.019885327151589312,0.019427870609960766,0.021257696776474946,0.01897041406833222
S8_D8 hbo,0.026333903111512794,0.018819707775834856,0.014973705064476622,0.028065504843114528,0.0264432743252713,0.013839060586413083,0.026985545971930237,0.008922267848137742,0.019033865781218278,0.014973705064476622,0.013460845760391903,0.013839060586413083,0.004761904761904762,0.02044193829367808,0.02179074077712504,0.025686844673228938,0.014595490238455444,0.025253944240328507,0.026985545971930237,0.025686844673228938,0.02092493991132418,0.028985991315794643,0.028120190449993778,0.015351919890497803,0.02985179218159551,0.017894636881021147,0.019143236994976782,0.028607776489773463,0.006652978892010663,0.016759992402957606,0.020710781905940757,0.013839060586413083,0.018332121736055168,0.011569771630286003,0.016108349542540163,0.016108349542540163,0.014217275412434264,0.013460845760391903,0.026497959932150553,0.015351919890497803,0.0,0.013082630934370723,0.010813341978243643,0.015351919890497803,0.022168955603146225,0.02438814337452764,0.026821489151292482,0.014217275412434264,0.028607776489773463,0.027796661230851852,0.0179493224879004,0.029418891748695077
S8_D15 hbo,0.013032524640437594,0.02008370745516067,0.02033895806149604,0.020314078038495845,0.022336731760178696,0.01922488592048713,0.020743488805832613,0.015023847962786857,0.02160231034050615,0.02069372875983222,0.018366064385813594,0.01920000589748693,0.010443159283750213,0.020843008897833408,0.023145793248851833,0.022336731760178696,0.018341184362813394,0.022361611783178893,0.020743488805832613,0.02195708103884232,0.02276614252751546,0.022311851737178496,0.022336731760178696,0.02033895806149604,0.01748236282813986,0.022716382481515064,0.018440704454814192,0.021932201015842125,0.00870063619140294,0.02081812887483321,0.021222659619169783,0.01922488592048713,0.020867888920833612,0.01732663231380528,0.021123139527168985,0.021123139527168985,0.018390944408813795,0.01922488592048713,0.021932201015842125,0.02033895806149604,0.0011389521640091116,0.01884523519915076,0.016187680149796168,0.017911773595476625,0.01707783208380329,0.022361611783178893,0.015459709106457012,0.018745715107149966,0.021123139527168985,0.02033895806149604,0.020743488805832613,0.020314078038495845
S9_D2 hbo,0.015404004549154342,0.022375344595629947,0.017794208403564535,0.022375344595629947,0.022762641264878588,0.016886767387230595,0.023216361773045556,0.013710723830061812,0.022508192273466593,0.019155369928065442,0.017794208403564535,0.016886767387230595,0.009173518748392121,0.023670082281212527,0.02244176843454827,0.023670082281212527,0.018247928911731503,0.023216361773045556,0.023216361773045556,0.023216361773045556,0.0219880479263813,0.023216361773045556,0.022762641264878588,0.017794208403564535,0.019664267910889432,0.020184412257974724,0.02244176843454827,0.022762641264878588,0.009505637942983744,0.019276971241640788,0.022375344595629947,0.016886767387230595,0.02244176843454827,0.01597932637089666,0.017340487895397567,0.017340487895397567,0.017340487895397567,0.017340487895397567,0.022762641264878588,0.017794208403564535,0.0018148820326678765,0.016886767387230595,0.014618164846395752,0.016953191226148922,0.018889674572392143,0.022762641264878588,0.01772778456464621,0.018247928911731503,0.022762641264878588,0.022375344595629947,0.019664267910889432,0.022375344595629947
S9_D9 hbo,0.020506080248665057,0.019202025712230245,0.017171691284824365,0.0251328538452104,0.025378837110110804,0.015688011759601814,0.02531636880190819,0.011236973183934157,0.019760350518143725,0.017171691284824365,0.01537956018649879,0.01605893164090745,0.00715685448957214,0.020560768621047564,0.022231853070877963,0.025007917228805167,0.016183868257312682,0.024699465655702142,0.02531636880190819,0.025007917228805167,0.02124403004336628,0.027046031592031148,0.02667511171072551,0.017542611166130005,0.023899047552798307,0.01945578891295076,0.018710059182429427,0.02630419182941987,0.006543841311276147,0.017972109387728204,0.020685705237452792,0.015688011759601814,0.018956042447329836,0.013833412353073622,0.017913531047435642,0.017913531047435642,0.01605893164090745,0.015688011759601814,0.02531636880190819,0.017542611166130005,0.000370919881305638,0.015317091878296175,0.01272065270915671,0.015937884992412273,0.019147337339847734,0.02371164262819046,0.02204833811418017,0.015812948376007045,0.02599574025631685,0.025007917228805167,0.019022400723442502,0.02574975699141644
S9_D11 hbo,0.008064516129032258,0.020711587721964138,0.01909868449615769,0.017485781270351233,0.017485781270351233,0.017485781270351233,0.01909868449615769,0.023937394173577042,0.020711587721964138,0.03268571180480181,0.029320974254330744,0.02784700212738245,0.026234098901576,0.020711587721964138,0.01909868449615769,0.020711587721964138,0.02232449094777059,0.01909868449615769,0.01909868449615769,0.01909868449615769,0.017485781270351233,0.01909868449615769,0.017485781270351233,0.01909868449615769,0.015466938740068596,0.020711587721964138,0.020711587721964138,0.017485781270351233,0.029726913558806932,0.017485781270351233,0.017485781270351233,0.017485781270351233,0.02232449094777059,0.020711587721964138,0.017485781270351233,0.017485781270351233,0.017485781270351233,0.01909868449615769,0.017485781270351233,0.01909868449615769,0.00967741935483871,0.01909868449615769,0.017485781270351233,0.017485781270351233,0.014793991229974384,0.017485781270351233,0.012102201189597534,0.020711587721964138,0.017485781270351233,0.017485781270351233,0.017485781270351233,0.017485781270351233
S10_D9 hbo,0.012359081053597416,0.018961305366754527,0.019599787270102684,0.01883390119748231,0.02063246234856144,0.01910069020332069,0.019959499500318507,0.016744589705976892,0.023463698578099337,0.021038636190965992,0.020539539124184,0.02202484965723603,0.008679555137368579,0.019773653051563624,0.021758060651397647,0.021038636190965992,0.02099217457877727,0.023556621802476783,0.019959499500318507,0.021038636190965992,0.023150447960072235,0.020678923960750162,0.02063246234856144,0.019599787270102684,0.016315915585971515,0.02139834842118182,0.01756891805807994,0.020272750118345617,0.007473014277448877,0.023823410808315168,0.02058600073637272,0.021978388045047308,0.02008690366959073,0.016710108761082115,0.022790735729856407,0.022790735729856407,0.021305425196804374,0.021978388045047308,0.023510160190288062,0.0224774851118293,0.00040617384240454913,0.021212501972426932,0.01693043615473178,0.01703534004640317,0.018114476737050654,0.02099217457877727,0.014517354434892379,0.018114476737050654,0.019553325657913963,0.019193613427698132,0.019913037888129786,0.01883390119748231
S10_D10 hbo,0.01560603110612273,0.020597785005840988,0.01833640653274389,0.021749375816020343,0.02311456352933092,0.01825824037382321,0.022431969672675633,0.01246392331126738,0.021593043498178987,0.017995109604416245,0.016814886501591957,0.01791694344549557,0.007508532423208191,0.021778008108665276,0.02311456352933092,0.02311456352933092,0.016893052660512633,0.023455860457658566,0.022431969672675633,0.02311456352933092,0.022773266601003275,0.022773266601003275,0.02311456352933092,0.01833640653274389,0.019360297317726826,0.020042891174382113,0.01965206037977873,0.022773266601003275,0.0068754724328286415,0.019964725015461437,0.028987046750807433,0.0237112605080514,0.02143671118033763,0.01574146185033328,0.018677703461071535,0.018677703461071535,0.01757564651716792,0.01783877728657489,0.02311456352933092,0.01833640653274389,0.0,0.017419314199326567,0.014902535675836635,0.016629921891105664,0.018677703461071535,0.023455860457658566,0.0176538126760886,0.016893052660512633,0.022431969672675633,0.022090672744347985,0.020042891174382113,0.021749375816020343
S10_D12 hbo,0.010221465076660987,0.017615802709499473,0.020171168978664722,0.01736432221951813,0.019348449203645115,0.020113031015927096,0.018583867391363133,0.018602796030393987,0.022890808793704878,0.021758470565966307,0.02252305237824829,0.02413942294691869,0.009552878505178336,0.01846759146588789,0.020567994375490117,0.019774343581839323,0.022126226981422893,0.022948946756442497,0.018583867391363133,0.019774343581839323,0.02252305237824829,0.019377518185013924,0.019348449203645115,0.020171168978664722,0.014586544441740353,0.020171168978664722,0.016057570103566697,0.018951623806819716,0.008110921824720802,0.02368445958735567,0.024856007138801005,0.02879519212568616,0.01926124225953868,0.01801262810632487,0.024110353965549877,0.024110353965549877,0.02249398339687948,0.02368445958735567,0.022919877775073684,0.02374259755009329,0.00042589437819420784,0.023287634190530274,0.018322246559043832,0.01736432221951813,0.016967496822692732,0.019745274600470514,0.012602417457613369,0.01855479840999432,0.018157973013168925,0.017761147616343526,0.019348449203645115,0.01736432221951813
S11_D9 hbo,0.014247741103412908,0.022236072782295432,0.01843802918095799,0.020337050981626713,0.02202852594779721,0.018983871008690312,0.02148268412006489,0.015623770269138103,0.022628317258503075,0.019037820491663852,0.018830273657165632,0.01843802918095799,0.009656957452264227,0.023174159086235394,0.023174159086235394,0.023304907244971272,0.018022935511961553,0.023174159086235394,0.02148268412006489,0.02283586409300129,0.02236682094103131,0.02215927410653309,0.02202852594779721,0.01877632417419209,0.01796898602898801,0.020936842292332572,0.02067534597486081,0.02169023095456311,0.008488475121037252,0.02067534597486081,0.02236682094103131,0.018983871008690312,0.023981497231439476,0.01817653286348623,0.01864557601545621,0.01864557601545621,0.01729239604251981,0.01911461916742619,0.02169023095456311,0.01877632417419209,0.001876172607879925,0.01911461916742619,0.016300360255606303,0.015939216069583408,0.01763069103575391,0.02236682094103131,0.01627751106281751,0.01789218735322567,0.02101364096809491,0.02067534597486081,0.01999875598839261,0.020337050981626713
S11_D11 hbo,0.009771986970684038,0.02018440117199135,0.02083196540741354,0.01765980467445266,0.019850865147721726,0.021603713526336974,0.01907911702879829,0.01866041274726153,0.021374853572451544,0.02093664147779773,0.021917741737489546,0.02083196540741354,0.011707542672151693,0.021270177502067354,0.021708389596721164,0.021374853572451544,0.020164893358874295,0.021270177502067354,0.01907911702879829,0.02083196540741354,0.021603713526336974,0.019955541218105916,0.019850865147721726,0.021270177502067354,0.014592320011875975,0.021813065667105357,0.018098016769106474,0.019412653053067913,0.00993518648041939,0.021603713526336974,0.02028907724237554,0.021603713526336974,0.02268948985641298,0.02258481378602879,0.02116550143168316,0.02116550143168316,0.019412653053067913,0.023023025880682602,0.019412653053067913,0.021270177502067354,0.0016286644951140066,0.021708389596721164,0.0213943613855686,0.0189744409584141,0.0154687442011836,0.021603713526336974,0.012401259538606914,0.020060217288490105,0.018536228863760287,0.018098016769106474,0.021603713526336974,0.01765980467445266
S11_D12 hbo,0.011764705882352941,0.01714546283629731,0.019890560875512997,0.018741450068399453,0.020287277701778385,0.019489284085727313,0.018340173278613772,0.019042407660738715,0.022590059279525763,0.021440948472412222,0.02142270861833105,0.024140446876424988,0.008914728682170543,0.017929776561787507,0.020670314637482902,0.019502963976288187,0.02220702234382125,0.022991336069311447,0.018340173278613772,0.019502963976288187,0.023383492932056542,0.020291837665298677,0.020679434564523484,0.019890560875512997,0.01602827177382581,0.020282717738258092,0.015599635202918377,0.01989968080255358,0.007387140902872777,0.023369813041495668,0.0191062471500228,0.023365253077975375,0.01831281349749202,0.01674874601003192,0.026101231190150478,0.026101231190150478,0.023757409940720474,0.022973096215230276,0.024163246694026447,0.02376652986776106,0.0,0.02219334245326037,0.01751481988144095,0.017957136342909255,0.018349293205654354,0.020282717738258092,0.014090287277701778,0.01794345645234838,0.019124487004103966,0.018344733242134065,0.01989512083903329,0.018741450068399453
S11_D13 hbo,0.011764705882352941,0.01706681135175054,0.019811909390966224,0.018682461454989373,0.02021190336242106,0.019404078310801647,0.018274630374824796,0.01930219589757502,0.02286295609711986,0.021349188407107655,0.021317839972268694,0.024400235113261292,0.008839354342813221,0.017851125077240734,0.02058838600774668,0.019427589636930868,0.022486473451794248,0.022886467423249082,0.018274630374824796,0.019427589636930868,0.023278624285994184,0.020219740471130804,0.020604060225166164,0.019811909390966224,0.01599222317674187,0.020204066253711322,0.015537369444318851,0.019827583608385706,0.007341260870220494,0.02325511295986496,0.01902759566547603,0.02324727585115522,0.018227607722566354,0.016666817380295698,0.026361019426986782,0.026361019426986782,0.024023752467935675,0.02323943874244548,0.024055100902774636,0.024039426685355157,0.0,0.022462962125665023,0.017419782670946935,0.01789814772949918,0.018674624346279634,0.020204066253711322,0.014070624406565086,0.017874636403369955,0.01905894410031499,0.018282467483534535,0.019819746499675966,0.018682461454989373
S12_D10 hbo,0.01067463706233988,0.017136514159174866,0.019698427054136436,0.01805773796471888,0.019288254781782047,0.01927144157164284,0.018467910237073268,0.020283386656896323,0.023356351085047522,0.02133911614355399,0.022536006540338743,0.02583419792931306,0.008613617719442166,0.017990485124162056,0.019698427054136436,0.019288254781782047,0.023783336567541117,0.022979805232971544,0.018467910237073268,0.019288254781782047,0.022569632960617154,0.018878082509427657,0.019288254781782047,0.019698427054136436,0.015186532058238158,0.019698427054136436,0.015922810552250904,0.018878082509427657,0.00787733922542942,0.02296299202283234,0.01927144157164284,0.02337316429518673,0.017990485124162056,0.016709528676681268,0.02544083886709788,0.02585101113945227,0.029233268579122618,0.0241766956297563,0.023800149777680323,0.0246204943223891,0.0,0.023339537874908313,0.017496246801111632,0.01805773796471888,0.018878082509427657,0.019698427054136436,0.013135670696466213,0.018040924754579673,0.018467910237073268,0.01805773796471888,0.019288254781782047,0.01805773796471888
S12_D12 hbo,0.010150044130626656,0.017682213891865306,0.01944743895806125,0.016792110551290863,0.018637129001475364,0.019744140071586064,0.017971424197913647,0.01939011799650212,0.023506479548467154,0.021364759984757835,0.025054796885126837,0.024244486928540955,0.009369697403946678,0.01856482642496328,0.019816442648098148,0.019519741534573334,0.02320977843494234,0.02239946847835645,0.017971424197913647,0.01907843526802435,0.021958162211807467,0.018709431577987448,0.018637129001475364,0.01944743895806125,0.01420908472103256,0.019888745224610233,0.01627850170822979,0.01826812531143846,0.008255195526359501,0.02306517328191817,0.019006132691512266,0.02343417697195507,0.019302833805037077,0.018716922385463925,0.02417218435202887,0.02417218435202887,0.02306517328191817,0.026755210182287173,0.022327165901844366,0.023506479548467154,0.00088261253309797,0.02343417697195507,0.021083040486185974,0.020113143761622966,0.02048214745165987,0.022327165901844366,0.012364066270848057,0.018781734154499533,0.017530117931364664,0.01716111424132776,0.021958162211807467,0.016792110551290863
S12_D14 hbo,0.018665223421168352,0.018481435127242388,0.01691370970469844,0.02384061157527991,0.02402349784076943,0.015737239116463145,0.022951662551161926,0.01380193710606727,0.02177519196292663,0.018063795961167674,0.01764525476665652,0.018899976321753543,0.0060379528464634845,0.0198407919809672,0.021331168465085863,0.023239184115279234,0.018429568492146713,0.025251835064100395,0.022951662551161926,0.023239184115279234,0.0224812547215551,0.024415654703514526,0.024703176267631837,0.01691370970469844,0.021827960626458746,0.018743474388030083,0.01743598416940094,0.02402349784076943,0.005986086211367814,0.020154697876850567,0.020442219440967878,0.018324933193518925,0.01829854886175287,0.01338429793999256,0.020860760635479033,0.020860760635479033,0.019004611620381334,0.018220297894891137,0.02689871348194252,0.019501403781754217,0.0,0.017540619468028727,0.013750070470971598,0.016155780310974303,0.020860760635479033,0.023056297849789714,0.020390352805872203,0.015266831286856318,0.02373597627665212,0.023056297849789714,0.018743474388030083,0.02384061157527991
S13_D6 hbo,0.010760953112990008,0.017808113310523774,0.020114031834735917,0.01777576215429944,0.019724320221329836,0.018966464432000563,0.0185551853811116,0.01902577488507851,0.023632220074132074,0.02244151779643095,0.022078765479878477,0.0236376119335028,0.0101163263704459,0.018576752818594486,0.020888063202177353,0.020108639975365196,0.022847404987949196,0.023231724741984552,0.0185551853811116,0.019724320221329836,0.023231724741984552,0.019718928361959116,0.019724320221329836,0.020114031834735917,0.015047780860456883,0.02088267134280663,0.01624387499752873,0.019334608607923756,0.008530520619967973,0.022858188706690638,0.018961072572629842,0.02286358056606136,0.018582144677965207,0.01704486566182378,0.02518028280901495,0.02518028280901495,0.022858188706690638,0.02364300379287352,0.02362143635539063,0.02440085958220279,0.0011529592621060721,0.022868972425432083,0.017450752853342022,0.01777576215429944,0.01816547376770552,0.020114031834735917,0.013099222793426485,0.01856057724048232,0.0185551853811116,0.01816547376770552,0.019724320221329836,0.01777576215429944
S13_D11 hbo,0.0,0.056435918821239925,0.044273005282179596,0.0,0.0,0.0,0.007575757575757576,0.0837503475118154,0.06102307478454268,0.030303030303030304,0.07617458993605783,0.007575757575757576,0.03787878787878788,0.06102307478454268,0.039685849318876844,0.015151515151515152,0.06859883236030026,0.007575757575757576,0.007575757575757576,0.007575757575757576,0.0,0.007575757575757576,0.0,0.007575757575757576,0.0,0.015151515151515152,0.015151515151515152,0.0,0.030303030303030304,0.0,0.0,0.0,0.022727272727272728,0.015151515151515152,0.0,0.0,0.0,0.007575757575757576,0.0,0.007575757575757576,0.1904364748401446,0.007575757575757576,0.0,0.045871559633027525,0.0,0.0,0.0,0.015151515151515152,0.0,0.0,0.0,0.0
S13_D13 hbo,0.010119595216191352,0.01796332451083202,0.0198032509137759,0.017037350788827784,0.018958949559004575,0.020111908821110643,0.018265971897634473,0.0205839114629112,0.024030768208164834,0.0218005115306533,0.02333779054679473,0.024799407716235546,0.009759317544285162,0.018883287712303957,0.02018757066781126,0.019878912760476514,0.023722110300830088,0.02287780894605876,0.018265971897634473,0.019418931159740544,0.02280214709935815,0.019034611405705185,0.018958949559004575,0.0198032509137759,0.014347112510580283,0.02026323251451187,0.0165017073413912,0.018574629804969215,0.008600347761646799,0.02357078660742886,0.01934326931303993,0.023955106361464217,0.019651927220374676,0.018347644264867374,0.024339426115499576,0.024723745869534935,0.023955106361464217,0.024723745869534935,0.02280214709935815,0.02441508796220019,0.0009199632014719411,0.024723745869534935,0.018504978478800893,0.017037350788827784,0.018190310050933856,0.01934326931303993,0.012425513740403496,0.0191102732524058,0.0178059902968985,0.017421670542863144,0.018958949559004575,0.017037350788827784
S13_D15 hbo,0.010062893081761006,0.018351570826015823,0.01960943246123595,0.017222797616367212,0.019211659987091158,0.020404977409525522,0.01801834256465679,0.01805586826976479,0.021200522357815103,0.020802749883670313,0.022393839780249468,0.021200522357815103,0.009148766905330152,0.01960943246123595,0.020007204935380735,0.019211659987091158,0.01960943246123595,0.021200522357815103,0.01801834256465679,0.019211659987091158,0.021598294831959894,0.018813887512946367,0.019211659987091158,0.01960943246123595,0.014438390297353686,0.01960943246123595,0.016991639272901937,0.018813887512946367,0.008713468726077363,0.02199606730610468,0.01960943246123595,0.02199606730610468,0.020404977409525522,0.021200522357815103,0.021598294831959894,0.021598294831959894,0.020404977409525522,0.025178247099262994,0.020404977409525522,0.021200522357815103,0.0,0.021598294831959894,0.03557436844238303,0.022393839780249468,0.020007204935380735,0.025576019573407785,0.01244952792662974,0.018416115038801577,0.01801834256465679,0.017620570090512,0.025178247099262994,0.017222797616367212
S14_D12 hbo,0.011391375101708706,0.02071063090692871,0.023077705451586654,0.019564452024785628,0.02004522125555486,0.018417881955310758,0.019231551605432808,0.01841749076797897,0.023299508668711274,0.019231551605432808,0.02570335482255743,0.018417881955310758,0.008653846153846154,0.02248583901858922,0.023003771045878453,0.019231551605432808,0.0237063434937723,0.019231551605432808,0.019231551605432808,0.019231551605432808,0.019638386430493836,0.02004522125555486,0.02004522125555486,0.019231551605432808,0.016679836640170247,0.019638386430493836,0.01630977342429743,0.02004522125555486,0.008764943356074358,0.018417881955310758,0.018417881955310758,0.018417881955310758,0.017197377480127684,0.0174191806972523,0.02004522125555486,0.02004522125555486,0.018417881955310758,0.022337970207172812,0.02004522125555486,0.019231551605432808,0.004326923076923077,0.01760421230518871,0.020932434124053326,0.02973454027664768,0.02148752894786255,0.025888386430493834,0.014275990486324091,0.018417881955310758,0.02004522125555486,0.019157617199724607,0.025888386430493834,0.019564452024785628
S14_D13 hbo,0.018320406263777535,0.01869662481017619,0.014999755066050523,0.022575725412713705,0.022191995558531047,0.013464835649319901,0.021808265704348392,0.013540928462957822,0.02321026763116213,0.017127414640518607,0.019847814372724155,0.01852941656733234,0.004639049003118826,0.019889616433435117,0.021340931728743816,0.021808265704348392,0.018913146421515,0.02521252102349733,0.021808265704348392,0.021808265704348392,0.02351039336392286,0.022959455266896363,0.022575725412713705,0.014999755066050523,0.022575725412713705,0.017511144494701262,0.018654822749465227,0.022191995558531047,0.006557698274032103,0.019380480397119575,0.02023154422690681,0.017294622883362455,0.01822929083457161,0.012822782123087474,0.019638804069169347,0.020064335984062966,0.01852941656733234,0.02197547394719224,0.026021782792573604,0.01968060612988031,0.0003837298541826554,0.017761956858967032,0.016777975539262913,0.01968060612988031,0.029851570026616155,0.02648911676817818,0.02087359775313924,0.01423229535768521,0.022191995558531047,0.021808265704348392,0.02223379761924201,0.022575725412713705
S14_D14 hbo,0.01749226642107737,0.019394612193737854,0.01761216316657336,0.022943508092791484,0.024154895130950177,0.01673204462642849,0.0227605580787478,0.011303014901589133,0.020063358981364895,0.017309316407033686,0.017246263138485998,0.016429197866888817,0.006662628709872804,0.020788949245940228,0.02254918632622997,0.023366251597827147,0.015914979354831313,0.023669098357366816,0.0227605580787478,0.023366251597827147,0.021943492807150626,0.0238520483714105,0.024154895130950177,0.01761216316657336,0.020823580776013772,0.01952071873083324,0.018274700162601007,0.0238520483714105,0.006211463466362992,0.018640600190688368,0.021366221026545423,0.01673204462642849,0.019486087200759696,0.015274654305678426,0.018703653459236063,0.018703653459236063,0.01652067287391066,0.019063343695724034,0.024154895130950177,0.01761216316657336,0.0,0.015943401093305463,0.01812017188703147,0.020429259009452257,0.022640661333251808,0.029211815036102772,0.019309346978315406,0.015914979354831313,0.02354920161187083,0.022852033085769642,0.024063420123928335,0.022943508092791484
S14_D16 hbo,0.027806704100731668,0.019323634507401738,0.013670239918325677,0.02947337076739833,0.027596562872213716,0.012521694742215417,0.028497532754806876,0.007544665645737622,0.019188361408882082,0.013670239918325677,0.012138846350178664,0.012521694742215417,0.0033333333333333335,0.021200442402586353,0.022213714480176963,0.026830866088140205,0.013287391526288923,0.026275310532584653,0.028497532754806876,0.026830866088140205,0.021102603369065852,0.03020163348647269,0.029646077930917135,0.01405308831036243,0.030757189042028246,0.017213714480176962,0.01953377573591969,0.02981878509443594,0.0052475752935171,0.0160651693040667,0.0212378764675855,0.012521694742215417,0.01859537178832738,0.010224604389994896,0.014818785094435937,0.014818785094435937,0.01290454313425217,0.012138846350178664,0.028152118427769268,0.01405308831036243,0.0,0.01175599795814191,0.009458907605921388,0.01405308831036243,0.023707673983324826,0.025547047813510294,0.030757189042028246,0.01290454313425217,0.02981878509443594,0.028880381146843628,0.017386421643695762,0.03020163348647269
S15_D13 hbo,0.010245901639344262,0.019223342007989523,0.021272522335858378,0.019346002751578842,0.020862686270284606,0.020452850204710837,0.020766961162956454,0.016764325614546903,0.020862686270284606,0.022092194467005916,0.021682358401432147,0.020862686270284606,0.012256128893235426,0.020043014139137068,0.021272522335858378,0.021682358401432147,0.021176797228530227,0.021272522335858378,0.020766961162956454,0.021272522335858378,0.020862686270284606,0.021272522335858378,0.020862686270284606,0.021272522335858378,0.015807074541265394,0.021682358401432147,0.018622055727759455,0.020862686270284606,0.01035654494521706,0.020452850204710837,0.020452850204710837,0.020452850204710837,0.020452850204710837,0.018813505942415754,0.020862686270284606,0.020862686270284606,0.020452850204710837,0.020452850204710837,0.020862686270284606,0.021272522335858378,0.001639344262295082,0.020043014139137068,0.017174161680120672,0.019346002751578842,0.015301513368363473,0.020862686270284606,0.013279268676755789,0.020766961162956454,0.020357125097382682,0.019851563924480765,0.020862686270284606,0.019346002751578842
S15_D15 hbo,0.021182700794351278,0.018902618417181525,0.01669976463665784,0.026037069726390114,0.025658281847602236,0.015563401000294203,0.02554795528096499,0.01063915857605178,0.01944689614592527,0.01669976463665784,0.015184613121506325,0.015563401000294203,0.006472491909385114,0.020307443365695795,0.021988084730803176,0.024900706090026477,0.015997352162400703,0.024577081494557222,0.02554795528096499,0.024900706090026477,0.021340835539864666,0.02733156810826714,0.02700794351279788,0.01707855251544572,0.02474257134451309,0.019075463371579875,0.018689320388349515,0.026952780229479258,0.006424683730508973,0.01793909973521624,0.02079655781112092,0.015563401000294203,0.018634157105030892,0.013290673727566931,0.017836128273021477,0.017836128273021477,0.015942188879082084,0.015184613121506325,0.025603118564283614,0.01707855251544572,0.0,0.014805825242718448,0.012533097969991174,0.016431303324507207,0.019777875845837012,0.02392983230361871,0.022800823771697558,0.015618564283612827,0.026629155634010002,0.025603118564283614,0.019020300088261256,0.026684318917328628
S15_D16 hbo,0.020278949806563085,0.019205218414693692,0.016869952798888206,0.025587509859648683,0.025255724856330833,0.015360518836624057,0.025873721375718348,0.010832216949831604,0.019719297367004292,0.016869952798888206,0.015360518836624057,0.015737877327190092,0.006681273553605188,0.020623505402461467,0.02226965982647018,0.024878366365764796,0.01649259430832217,0.024546581362446945,0.025873721375718348,0.024878366365764796,0.021228731329268447,0.026960223360168272,0.02625107986628438,0.017247311289454247,0.02392858484305943,0.019283594796609533,0.01929636538919007,0.026582864869602235,0.006909140989846126,0.01777416083434538,0.020714652376957843,0.015360518836624057,0.01891900689862403,0.013473726383793867,0.01762466978002028,0.01762466978002028,0.015737877327190092,0.015360518836624057,0.025587509859648683,0.017247311289454247,0.0003773584905660377,0.014983160346058018,0.012341650912095754,0.01653816779557036,0.01994716480324523,0.023883011355811244,0.02226965982647018,0.016115235817756132,0.026582864869602235,0.025541936372400494,0.01886066281879531,0.02625107986628438
S16_D14 hbo,0.01363018107185796,0.018923891526905746,0.01953292933218367,0.020346598982305723,0.022212270624096767,0.01871925968206162,0.020279197988900086,0.013430406956268293,0.02055123082714985,0.01915979500382546,0.01943182784207522,0.01871925968206162,0.008582089552238806,0.019737561177027796,0.02217857012739395,0.021398600973974717,0.017226722368628784,0.021771735302332923,0.020279197988900086,0.021398600973974717,0.02217857012739395,0.021839136295738557,0.022212270624096767,0.01953292933218367,0.017734658683798258,0.021432301470677532,0.017465054710175728,0.021839136295738557,0.007258054722320052,0.020584931323852668,0.020958065652210874,0.01871925968206162,0.019737561177027796,0.017397653716770094,0.020346598982305723,0.020346598982305723,0.017972991025345202,0.021670633812224477,0.021839136295738557,0.01953292933218367,0.0,0.017905590031939568,0.020315327350230134,0.022551704455752157,0.021466001967380348,0.027775585052767084,0.015868987042007215,0.017599856696986993,0.02109286763902214,0.020312898485602904,0.026656182067692456,0.020346598982305723
S16_D16 hbo,0.022108388517983725,0.018873827120136837,0.016455193464666035,0.026527151264414725,0.025421549653692678,0.015306648288555776,0.025675567349564787,0.01032961919207798,0.019385506208338236,0.016455193464666035,0.01492379989651902,0.015306648288555776,0.006118286879673691,0.02031933355750742,0.02197955782181908,0.02465585286961917,0.01607234507262928,0.02431594804297063,0.025675567349564787,0.02465585286961917,0.021299748168522002,0.027503922178972125,0.02682411252567505,0.016838041856702787,0.025464493219080894,0.018920414381982234,0.018959714250913265,0.027121073786935374,0.006672909533263305,0.017771869205871975,0.020788069080320604,0.015306648288555776,0.018576865858876513,0.013009557936335254,0.017603738640776294,0.017603738640776294,0.015689496680592527,0.01492379989651902,0.025761454480341214,0.016838041856702787,0.0,0.014540951504482268,0.012243861152261747,0.01649813703005425,0.020322977253964602,0.02401898678171031,0.023425064259189665,0.015689496680592527,0.027121073786935374,0.02605841574160154,0.01887747081659402,0.027164017352323586
