,S1_D1 hbo,S1_D3 hbo,S2_D1 hbo,S2_D2 hbo,S2_D4 hbo,S3_D1 hbo,S3_D3 hbo,S3_D4 hbo,S3_D5 hbo,S4_D2 hbo,S4_D4 hbo,S4_D6 hbo,S4_D11 hbo,S5_D3 hbo,S5_D5 hbo,S5_D7 hbo,S6_D4 hbo,S6_D5 hbo,S6_D6 hbo,S6_D8 hbo,S7_D5 hbo,S7_D7 hbo,S7_D8 hbo,S8_D6 hbo,S8_D8 hbo,S8_D15 hbo,S9_D2 hbo,S9_D9 hbo,S9_D11 hbo,S10_D9 hbo,S10_D10 hbo,S10_D12 hbo,S11_D9 hbo,S11_D11 hbo,S11_D12 hbo,S11_D13 hbo,S12_D10 hbo,S12_D12 hbo,S12_D14 hbo,S13_D6 hbo,S13_D11 hbo,S13_D13 hbo,S13_D15 hbo,S14_D12 hbo,S14_D13 hbo,S14_D14 hbo,S14_D16 hbo,S15_D13 hbo,S15_D15 hbo,S15_D16 hbo,S16_D14 hbo,S16_D16 hbo
S1_D1 hbo,0.07946026986506746,0.029985007496251874,0.038980509745127435,0.0,0.03298350824587706,0.050974512743628186,0.04047976011994003,0.04047976011994003,0.017991004497751123,0.017991004497751123,0.0239880059970015,0.008995502248875561,0.013493253373313344,0.044977511244377814,0.017991004497751123,0.04047976011994003,0.0,0.017991004497751123,0.029985007496251874,0.008995502248875561,0.03298350824587706,0.044977511244377814,0.013493253373313344,0.005997001499250375,0.010494752623688156,0.025487256371814093,0.038980509745127435,0.0,0.0,0.0,0.020989505247376312,0.0,0.017991004497751123,0.008995502248875561,0.026986506746626688,0.0239880059970015,0.0,0.0,0.014992503748125937,0.0,0.0,0.0,0.01199400299850075,0.0,0.0,0.014992503748125937,0.0239880059970015,0.0,0.0,0.037481259370314844,0.029985007496251874,0.038980509745127435
S1_D3 hbo,0.021574973031283712,0.0668824163969795,0.03128371089536138,0.007551240560949299,0.023732470334412083,0.032362459546925564,0.05609492988133765,0.034519956850053934,0.017259978425026967,0.008629989212513484,0.011866235167206042,0.0,0.0,0.05177993527508091,0.021574973031283712,0.034519956850053934,0.0,0.007551240560949299,0.037756202804746494,0.039913700107874865,0.038834951456310676,0.05609492988133765,0.030204962243797196,0.010787486515641856,0.019417475728155338,0.022653721682847898,0.015102481121898598,0.0,0.014023732470334413,0.007551240560949299,0.034519956850053934,0.0,0.009708737864077669,0.0,0.017259978425026967,0.010787486515641856,0.0,0.012944983818770227,0.006472491909385114,0.008629989212513484,0.0,0.0,0.008629989212513484,0.018338727076591153,0.0,0.0,0.030204962243797196,0.0,0.016181229773462782,0.05609492988133765,0.017259978425026967,0.03344120819848975
S2_D1 hbo,0.0328515111695138,0.035479632063074903,0.06176084099868594,0.02890932982917214,0.02102496714848883,0.02890932982917214,0.04204993429697766,0.02890932982917214,0.01971090670170828,0.013140604467805518,0.018396846254927726,0.006570302233902759,0.024967148488830485,0.04336399474375821,0.01971090670170828,0.02890932982917214,0.0,0.010512483574244415,0.02890932982917214,0.01971090670170828,0.0328515111695138,0.040735873850197106,0.023653088042049936,0.017082785808147174,0.02102496714848883,0.02759526938239159,0.04467805519053877,0.0,0.030223390275952694,0.00788436268068331,0.018396846254927726,0.0,0.024967148488830485,0.006570302233902759,0.01576872536136662,0.02102496714848883,0.0,0.0,0.006570302233902759,0.006570302233902759,0.01576872536136662,0.0,0.010512483574244415,0.0,0.0,0.0,0.0328515111695138,0.0,0.0,0.04204993429697766,0.009198423127463863,0.030223390275952694
S2_D2 hbo,0.0,0.012755102040816327,0.05612244897959184,0.10459183673469388,0.0,0.03316326530612245,0.04591836734693878,0.02040816326530612,0.02295918367346939,0.0,0.02295918367346939,0.0,0.03571428571428571,0.02295918367346939,0.02295918367346939,0.02295918367346939,0.017857142857142856,0.02295918367346939,0.0,0.02295918367346939,0.05102040816326531,0.04591836734693878,0.05612244897959184,0.02295918367346939,0.02295918367346939,0.02295918367346939,0.03826530612244898,0.0,0.061224489795918366,0.015306122448979591,0.0,0.0,0.03316326530612245,0.0,0.0,0.0,0.0,0.0,0.012755102040816327,0.012755102040816327,0.03316326530612245,0.0,0.0,0.0,0.0,0.0,0.02295918367346939,0.0,0.0,0.02295918367346939,0.017857142857142856,0.02040816326530612
S2_D4 hbo,0.020735155513666354,0.020735155513666354,0.015080113100848256,0.0,0.0527803958529689,0.02544769085768143,0.029217719132893498,0.04052780395852969,0.022620169651272386,0.010367577756833177,0.007540056550424128,0.005655042412818096,0.00942507068803016,0.04147031102733271,0.03298774740810556,0.04241281809613572,0.0,0.03204524033930255,0.03110273327049953,0.016965127238454288,0.03204524033930255,0.03204524033930255,0.0235626767200754,0.003770028275212064,0.016022620169651274,0.034872761545711596,0.021677662582469368,0.0,0.0,0.0,0.01885014137606032,0.00942507068803016,0.02827521206409048,0.022620169651272386,0.033930254476908575,0.027332704995287466,0.0,0.01885014137606032,0.016965127238454288,0.0,0.0,0.0,0.024505183788878417,0.022620169651272386,0.01413760603204524,0.016022620169651274,0.024505183788878417,0.0,0.016965127238454288,0.03770028275212064,0.017907634307257305,0.02827521206409048
S3_D1 hbo,0.03836930455635491,0.03597122302158273,0.026378896882494004,0.015587529976019185,0.03357314148681055,0.07913669064748201,0.0539568345323741,0.03836930455635491,0.011990407673860911,0.011990407673860911,0.007194244604316547,0.005995203836930456,0.007194244604316547,0.039568345323741004,0.015587529976019185,0.03597122302158273,0.0,0.013189448441247002,0.03117505995203837,0.022781774580335732,0.046762589928057555,0.06354916067146282,0.0407673860911271,0.004796163069544364,0.008393285371702638,0.019184652278177457,0.023980815347721823,0.0,0.0,0.0,0.02877697841726619,0.0,0.007194244604316547,0.005995203836930456,0.023980815347721823,0.017985611510791366,0.0,0.011990407673860911,0.01079136690647482,0.0,0.0,0.0,0.009592326139088728,0.015587529976019185,0.0,0.01079136690647482,0.016786570743405275,0.0,0.015587529976019185,0.04196642685851319,0.016786570743405275,0.03477218225419664
S3_D3 hbo,0.01710445937690898,0.030543677458766034,0.021380574221136223,0.011606597434331093,0.018937080024434942,0.028100183262064753,0.04948075748320098,0.02504581551618815,0.02504581551618815,0.007330482590103849,0.021380574221136223,0.012217470983506415,0.012217470983506415,0.03420891875381796,0.02687843616371411,0.028711056811240074,0.0,0.01832620647525962,0.020158827122785584,0.02443494196701283,0.04031765424557117,0.042150274893097125,0.02504581551618815,0.018937080024434942,0.014660965180207697,0.020158827122785584,0.014050091631032376,0.00855222968845449,0.01710445937690898,0.012828344532681736,0.02748930971288943,0.00855222968845449,0.020769700671960906,0.012217470983506415,0.023824068417837508,0.01832620647525962,0.00855222968845449,0.01588271227855834,0.012217470983506415,0.013439218081857055,0.00855222968845449,0.00855222968845449,0.013439218081857055,0.018937080024434942,0.00855222968845449,0.00855222968845449,0.01832620647525962,0.00855222968845449,0.0177153329260843,0.03604153940134392,0.018937080024434942,0.02565668906536347
S3_D4 hbo,0.023278370514064017,0.031037827352085354,0.02133850630455868,0.007759456838021339,0.040737148399612025,0.030067895247332686,0.03685741998060136,0.058195926285160036,0.01842870999030068,0.011639185257032008,0.008729388942774006,0.005819592628516004,0.009699321047526674,0.0446168768186227,0.029097963142580018,0.037827352085354024,0.011639185257032008,0.03588748787584869,0.03394762366634336,0.02230843840931135,0.03297769156159069,0.03976721629485936,0.02521823472356935,0.004849660523763337,0.012609117361784675,0.027158098933074686,0.023278370514064017,0.0,0.0009699321047526673,0.0009699321047526673,0.02230843840931135,0.005819592628516004,0.020368574199806012,0.013579049466537343,0.03297769156159069,0.01842870999030068,0.0,0.01842870999030068,0.008729388942774006,0.0009699321047526673,0.0,0.0,0.015518913676042677,0.023278370514064017,0.007759456838021339,0.007759456838021339,0.01842870999030068,0.0,0.01842870999030068,0.041707080504364696,0.016488845780795344,0.02230843840931135
S3_D5 hbo,0.008895478131949592,0.010378057820607857,0.01111934766493699,0.006671608598962194,0.01630837657524092,0.007412898443291327,0.029651593773165306,0.014084507042253521,0.042994810971089696,0.0029651593773165306,0.03261675315048184,0.020756115641215715,0.02001482579688658,0.02446256486286138,0.040770941438102296,0.028169014084507043,0.0,0.028910303928836176,0.0029651593773165306,0.014084507042253521,0.03261675315048184,0.02001482579688658,0.012601927353595256,0.028169014084507043,0.013343217197924388,0.021497405485544848,0.009636767976278725,0.01704966641957005,0.02742772424017791,0.02223869532987398,0.02001482579688658,0.01704966641957005,0.028169014084507043,0.020756115641215715,0.03039288361749444,0.020756115641215715,0.01704966641957005,0.02001482579688658,0.021497405485544848,0.021497405485544848,0.01630837657524092,0.015567086730911787,0.01704966641957005,0.02001482579688658,0.01704966641957005,0.01704966641957005,0.01111934766493699,0.015567086730911787,0.02001482579688658,0.02001482579688658,0.026686434395848776,0.018532246108228317
S4_D2 hbo,0.029484029484029485,0.019656019656019656,0.029484029484029485,0.0,0.022113022113022112,0.029484029484029485,0.029484029484029485,0.029484029484029485,0.009828009828009828,0.08353808353808354,0.009828009828009828,0.019656019656019656,0.007371007371007371,0.029484029484029485,0.009828009828009828,0.0171990171990172,0.0,0.009828009828009828,0.05405405405405406,0.04914004914004914,0.0171990171990172,0.029484029484029485,0.014742014742014743,0.007371007371007371,0.019656019656019656,0.014742014742014743,0.029484029484029485,0.029484029484029485,0.0,0.012285012285012284,0.02457002457002457,0.02457002457002457,0.009828009828009828,0.009828009828009828,0.02457002457002457,0.03931203931203931,0.036855036855036855,0.004914004914004914,0.0,0.0,0.0,0.0343980343980344,0.012285012285012284,0.0,0.029484029484029485,0.0,0.0171990171990172,0.02457002457002457,0.0,0.029484029484029485,0.0,0.014742014742014743
S4_D4 hbo,0.013640238704177323,0.0076726342710997444,0.01278772378516624,0.0076726342710997444,0.0068201193520886615,0.005967604433077579,0.027280477408354646,0.0076726342710997444,0.03495311167945439,0.0025575447570332483,0.0443307757885763,0.023870417732310314,0.0196078431372549,0.01875532821824382,0.03324808184143223,0.02216538789428815,0.0,0.02557544757033248,0.0008525149190110827,0.01619778346121057,0.0247229326513214,0.014492753623188406,0.01278772378516624,0.03410059676044331,0.017050298380221655,0.020460358056265986,0.005967604433077579,0.01875532821824382,0.03154305200341006,0.0247229326513214,0.0196078431372549,0.01875532821824382,0.029838022165387893,0.023870417732310314,0.02557544757033248,0.023870417732310314,0.01875532821824382,0.0196078431372549,0.023870417732310314,0.0247229326513214,0.01875532821824382,0.017902813299232736,0.01875532821824382,0.0196078431372549,0.01875532821824382,0.01875532821824382,0.013640238704177323,0.017902813299232736,0.0196078431372549,0.01875532821824382,0.03495311167945439,0.017902813299232736
S4_D6 hbo,0.006726457399103139,0.0,0.005605381165919282,0.0,0.006726457399103139,0.005605381165919282,0.021300448430493273,0.006726457399103139,0.02914798206278027,0.006726457399103139,0.028026905829596414,0.03699551569506727,0.0257847533632287,0.006726457399103139,0.028026905829596414,0.01233183856502242,0.0,0.028026905829596414,0.004484304932735426,0.004484304932735426,0.016816143497757848,0.006726457399103139,0.0,0.02914798206278027,0.006726457399103139,0.006726457399103139,0.006726457399103139,0.032511210762331835,0.02466367713004484,0.03139013452914798,0.030269058295964126,0.033632286995515695,0.021300448430493273,0.030269058295964126,0.03811659192825112,0.03811659192825112,0.033632286995515695,0.02914798206278027,0.023542600896860985,0.028026905829596414,0.023542600896860985,0.033632286995515695,0.02466367713004484,0.028026905829596414,0.033632286995515695,0.023542600896860985,0.0,0.033632286995515695,0.026905829596412557,0.006726457399103139,0.02466367713004484,0.010089686098654708
S4_D11 hbo,0.008928571428571428,0.0,0.02295918367346939,0.01913265306122449,0.012755102040816327,0.00510204081632653,0.02295918367346939,0.011479591836734694,0.03443877551020408,0.0012755102040816326,0.026785714285714284,0.026785714285714284,0.04974489795918367,0.01020408163265306,0.03443877551020408,0.016581632653061226,0.0,0.03188775510204082,0.0,0.0,0.02423469387755102,0.008928571428571428,0.0,0.025510204081632654,0.003826530612244898,0.007653061224489796,0.029336734693877552,0.021683673469387755,0.04081632653061224,0.021683673469387755,0.021683673469387755,0.021683673469387755,0.03188775510204082,0.026785714285714284,0.03443877551020408,0.02806122448979592,0.021683673469387755,0.021683673469387755,0.021683673469387755,0.021683673469387755,0.03826530612244898,0.021683673469387755,0.021683673469387755,0.021683673469387755,0.021683673469387755,0.021683673469387755,0.0,0.021683673469387755,0.021683673469387755,0.006377551020408163,0.021683673469387755,0.011479591836734694
S5_D3 hbo,0.021872863978127138,0.032809295967190705,0.023923444976076555,0.006151742993848257,0.032809295967190705,0.02460697197539303,0.039644565960355434,0.0355434039644566,0.023923444976076555,0.008202323991797676,0.016404647983595352,0.004101161995898838,0.00683526999316473,0.05809979494190021,0.034859876965140126,0.0430622009569378,0.0,0.019822282980177717,0.02734107997265892,0.025974025974025976,0.03691045796308954,0.03896103896103896,0.02734107997265892,0.01367053998632946,0.021189336978810664,0.032809295967190705,0.01845522898154477,0.0,0.012987012987012988,0.004784688995215311,0.02050580997949419,0.004784688995215311,0.02460697197539303,0.010252904989747095,0.025290498974709502,0.017088174982911826,0.0,0.01367053998632946,0.010252904989747095,0.005468215994531784,0.0,0.0,0.01161995898838004,0.016404647983595352,0.006151742993848257,0.006151742993848257,0.02939166097060834,0.0,0.012987012987012988,0.04579630895420369,0.0177717019822283,0.028708133971291867
S5_D5 hbo,0.007434944237918215,0.012391573729863693,0.00929368029739777,0.0055762081784386614,0.02292441140024783,0.0080545229244114,0.027261462205700124,0.01858736059479554,0.03593556381660471,0.0024783147459727386,0.02540272614622057,0.015489467162329617,0.016728624535315983,0.030359355638166045,0.045229244114002476,0.03407682775712516,0.0018587360594795538,0.02973977695167286,0.010532837670384139,0.013630731102850062,0.030359355638166045,0.01858736059479554,0.019206939281288724,0.02540272614622057,0.017967781908302356,0.027881040892193308,0.0080545229244114,0.011771995043370507,0.022304832713754646,0.0161090458488228,0.0161090458488228,0.0161090458488228,0.02973977695167286,0.02168525402726146,0.02973977695167286,0.02168525402726146,0.011771995043370507,0.021065675340768277,0.02168525402726146,0.016728624535315983,0.011771995043370507,0.011771995043370507,0.017967781908302356,0.02168525402726146,0.017967781908302356,0.017967781908302356,0.015489467162329617,0.011771995043370507,0.02168525402726146,0.024783147459727387,0.027261462205700124,0.02292441140024783
S5_D7 hbo,0.017532874139010644,0.020037570444583593,0.013775829680651221,0.005635566687539136,0.030682529743268627,0.021289918597370068,0.029430181590482152,0.026299311208515967,0.024420788979336257,0.005635566687539136,0.017532874139010644,0.0068879148403256105,0.00939261114589856,0.038822792736380715,0.034439574201628055,0.048841577958672514,0.0,0.025046963055729492,0.021289918597370068,0.020663744520976832,0.03256105197244834,0.026299311208515967,0.024420788979336257,0.015028177833437696,0.021289918597370068,0.034439574201628055,0.012523481527864746,0.0031308703819661866,0.014402003757044458,0.007514088916718848,0.015028177833437696,0.010644959298685034,0.03005635566687539,0.017532874139010644,0.026925485284909206,0.020663744520976832,0.0031308703819661866,0.018159048215403883,0.023168440826549782,0.008140262993112084,0.0031308703819661866,0.0031308703819661866,0.018159048215403883,0.019411396368190358,0.013775829680651221,0.019411396368190358,0.025046963055729492,0.0031308703819661866,0.014402003757044458,0.036944270507201005,0.02567313713212273,0.03506574827802129
S6_D4 hbo,0.0,0.0,0.0,0.07526881720430108,0.0,0.0,0.0,0.12903225806451613,0.0,0.0,0.0,0.0,0.0,0.0,0.010752688172043012,0.0,0.3333333333333333,0.15053763440860216,0.0,0.0,0.0,0.0,0.043010752688172046,0.06451612903225806,0.06451612903225806,0.06451612903225806,0.0,0.0,0.0,0.0,0.0,0.0,0.0,0.0,0.0,0.0,0.0,0.0,0.0,0.0,0.0,0.0,0.0,0.0,0.0,0.0,0.0,0.0,0.06451612903225806,0.0,0.0,0.0
S6_D5 hbo,0.007959479015918957,0.005065123010130246,0.005788712011577424,0.006512301013024602,0.024602026049204053,0.007959479015918957,0.020984081041968163,0.028219971056439943,0.026772793053545588,0.002894356005788712,0.02170767004341534,0.01881331403762663,0.019536903039073805,0.020260492040520984,0.03473227206946455,0.026772793053545588,0.010130246020260492,0.04630969609261939,0.013748191027496382,0.005065123010130246,0.020984081041968163,0.013024602026049204,0.01085383502170767,0.01808972503617945,0.010130246020260492,0.02170767004341534,0.008683068017366137,0.01447178002894356,0.015918958031837915,0.015918958031837915,0.01808972503617945,0.020984081041968163,0.031114327062228653,0.030390738060781478,0.03473227206946455,0.030390738060781478,0.01447178002894356,0.02532561505065123,0.027496382054992764,0.015918958031837915,0.01447178002894356,0.01447178002894356,0.02604920405209841,0.02604920405209841,0.024602026049204053,0.02604920405209841,0.012301013024602027,0.01447178002894356,0.02243125904486252,0.017366136034732273,0.027496382054992764,0.02170767004341534
S6_D6 hbo,0.016574585635359115,0.03222836095764273,0.01841620626151013,0.0,0.03406998158379374,0.02578268876611418,0.0285451197053407,0.03314917127071823,0.003683241252302026,0.020257826887661142,0.0009208103130755065,0.003683241252302026,0.0,0.03591160220994475,0.01565377532228361,0.03130755064456722,0.0,0.019337016574585635,0.058011049723756904,0.03130755064456722,0.02117863720073665,0.0285451197053407,0.024861878453038673,0.0,0.020257826887661142,0.02394106813996317,0.01289134438305709,0.011049723756906077,0.0,0.004604051565377533,0.0285451197053407,0.019337016574585635,0.01565377532228361,0.01565377532228361,0.03130755064456722,0.034990791896869246,0.013812154696132596,0.02394106813996317,0.01565377532228361,0.0,0.0,0.01289134438305709,0.02302025782688766,0.02394106813996317,0.02578268876611418,0.01565377532228361,0.029465930018416207,0.009208103130755065,0.016574585635359115,0.037753222836095765,0.01841620626151013,0.03222836095764273
S6_D8 hbo,0.006586169045005488,0.038419319429198684,0.01646542261251372,0.009879253567508232,0.018660812294182216,0.020856201975850714,0.03951701427003293,0.025246981339187707,0.018660812294182216,0.021953896816684963,0.020856201975850714,0.0043907793633369925,0.0,0.03951701427003293,0.021953896816684963,0.031833150384193196,0.0,0.007683863885839737,0.036223929747530186,0.06366630076838639,0.03293084522502744,0.03951701427003293,0.03293084522502744,0.018660812294182216,0.02854006586169045,0.025246981339187707,0.006586169045005488,0.013172338090010977,0.01756311745334797,0.013172338090010977,0.02854006586169045,0.010976948408342482,0.01646542261251372,0.0,0.01756311745334797,0.014270032930845226,0.01646542261251372,0.015367727771679473,0.006586169045005488,0.008781558726673985,0.0,0.015367727771679473,0.005488474204171241,0.018660812294182216,0.013172338090010977,0.0,0.025246981339187707,0.010976948408342482,0.01646542261251372,0.04500548847420417,0.018660812294182216,0.025246981339187707
S7_D5 hbo,0.015352407536636426,0.02372644801116539,0.017445917655268667,0.015352407536636426,0.026517794836008374,0.028611304954640614,0.045359385903698535,0.025819958129797628,0.0314026517794836,0.00628053035589672,0.021632937892533146,0.0104675505931612,0.013258897418004187,0.03698534542916958,0.03349616189811584,0.03698534542916958,0.0,0.020237264480111653,0.015352407536636426,0.02372644801116539,0.050942079553384506,0.0418702023726448,0.030006978367062107,0.01884159106769016,0.017445917655268667,0.025819958129797628,0.015352407536636426,0.00628053035589672,0.01674808094905792,0.011165387299371946,0.023028611304954642,0.00628053035589672,0.02372644801116539,0.0104675505931612,0.02721563154221912,0.016050244242847175,0.00628053035589672,0.01465457083042568,0.0104675505931612,0.011863224005582694,0.00628053035589672,0.00628053035589672,0.011165387299371946,0.016050244242847175,0.00628053035589672,0.00628053035589672,0.017445917655268667,0.00628053035589672,0.015352407536636426,0.03279832519190509,0.018143754361479414,0.02512212142358688
S7_D7 hbo,0.024066390041493777,0.04149377593360996,0.027385892116182572,0.017427385892116183,0.028215767634854772,0.04398340248962656,0.054771784232365145,0.036514522821576766,0.022406639004149378,0.00995850622406639,0.015767634854771784,0.004979253112033195,0.007468879668049793,0.04564315352697095,0.024896265560165973,0.034854771784232366,0.0,0.015767634854771784,0.026556016597510373,0.030705394190871368,0.04979253112033195,0.06307053941908713,0.036514522821576766,0.012448132780082987,0.014937759336099586,0.025726141078838173,0.021576763485477178,0.0,0.009128630705394191,0.005809128630705394,0.024896265560165973,0.0,0.018257261410788383,0.004979253112033195,0.023236514522821577,0.013278008298755186,0.0,0.00995850622406639,0.004979253112033195,0.006639004149377593,0.0,0.0,0.006639004149377593,0.014107883817427386,0.0,0.0,0.021576763485477178,0.0,0.012448132780082987,0.048132780082987554,0.014107883817427386,0.024896265560165973
S7_D8 hbo,0.00893743793445879,0.025819265143992055,0.01787487586891758,0.021847070506454815,0.024826216484607744,0.03475670307845084,0.038728897715988087,0.027805362462760674,0.014895729890764648,0.007944389275074478,0.014895729890764648,0.0,0.0,0.039721946375372394,0.027805362462760674,0.03475670307845084,0.005958291956305859,0.014895729890764648,0.025819265143992055,0.029791459781529295,0.03773584905660377,0.039721946375372394,0.07149950347567031,0.019860973187686197,0.031777557100297914,0.03574975173783516,0.00893743793445879,0.0,0.013902681231380337,0.006951340615690168,0.016881827209533268,0.006951340615690168,0.021847070506454815,0.007944389275074478,0.01787487586891758,0.011916583912611719,0.0,0.01787487586891758,0.013902681231380337,0.006951340615690168,0.0,0.0,0.014895729890764648,0.01787487586891758,0.007944389275074478,0.007944389275074478,0.030784508440913606,0.0,0.020854021847070508,0.038728897715988087,0.024826216484607744,0.030784508440913606
S8_D6 hbo,0.0036529680365296802,0.0073059360730593605,0.011872146118721462,0.00821917808219178,0.0036529680365296802,0.0036529680365296802,0.026484018264840183,0.0045662100456621,0.031050228310502283,0.0009132420091324201,0.03561643835616438,0.023744292237442923,0.0182648401826484,0.01643835616438356,0.033789954337899546,0.02009132420091324,0.005479452054794521,0.021004566210045664,0.0,0.015525114155251141,0.0228310502283105,0.011872146118721462,0.0182648401826484,0.04657534246575343,0.028310502283105023,0.029223744292237442,0.0036529680365296802,0.02009132420091324,0.0319634703196347,0.026484018264840183,0.02009132420091324,0.02009132420091324,0.029223744292237442,0.021917808219178082,0.023744292237442923,0.023744292237442923,0.02009132420091324,0.02009132420091324,0.0228310502283105,0.0273972602739726,0.017351598173515982,0.02009132420091324,0.0182648401826484,0.02009132420091324,0.02009132420091324,0.017351598173515982,0.014611872146118721,0.02009132420091324,0.031050228310502283,0.01643835616438356,0.026484018264840183,0.0182648401826484
S8_D8 hbo,0.0073145245559038665,0.01671891327063741,0.01671891327063741,0.009404388714733543,0.017763845350052248,0.0073145245559038665,0.022988505747126436,0.01671891327063741,0.01671891327063741,0.01044932079414838,0.0219435736677116,0.0073145245559038665,0.003134796238244514,0.03239289446185998,0.030303030303030304,0.03134796238244514,0.006269592476489028,0.01567398119122257,0.022988505747126436,0.030303030303030304,0.02089864158829676,0.017763845350052248,0.03657262277951933,0.030303030303030304,0.05329153605015674,0.0438871473354232,0.0073145245559038665,0.008359456635318705,0.019853709508881923,0.013584117032392894,0.013584117032392894,0.017763845350052248,0.029258098223615466,0.013584117032392894,0.02089864158829676,0.024033437826541274,0.008359456635318705,0.013584117032392894,0.019853709508881923,0.011494252873563218,0.003134796238244514,0.008359456635318705,0.02089864158829676,0.013584117032392894,0.018808777429467086,0.013584117032392894,0.035527690700104496,0.008359456635318705,0.02089864158829676,0.03239289446185998,0.022988505747126436,0.03343782654127482
S8_D15 hbo,0.015347334410339256,0.015347334410339256,0.016962843295638127,0.007269789983844911,0.03150242326332795,0.013731825525040387,0.025040387722132473,0.025040387722132473,0.020193861066235864,0.006462035541195477,0.020193861066235864,0.004846526655896607,0.006462035541195477,0.03715670436187399,0.033117932148626815,0.04361873990306947,0.004846526655896607,0.025848142164781908,0.021809369951534735,0.0210016155088853,0.02827140549273021,0.025848142164781908,0.030694668820678513,0.025040387722132473,0.03715670436187399,0.05250403877221325,0.014539579967689823,0.0,0.012924071082390954,0.005654281098546042,0.008077544426494346,0.01050080775444265,0.036348949919224556,0.020193861066235864,0.024232633279483037,0.024232633279483037,0.0,0.014539579967689823,0.0210016155088853,0.006462035541195477,0.0,0.0,0.020193861066235864,0.014539579967689823,0.013731825525040387,0.01615508885298869,0.033925686591276254,0.0,0.017770597738287562,0.03715670436187399,0.020193861066235864,0.03231017770597738
S9_D2 hbo,0.04187604690117253,0.023450586264656615,0.05695142378559464,0.02680067001675042,0.03685092127303183,0.031825795644891124,0.03685092127303183,0.04522613065326633,0.021775544388609715,0.020100502512562814,0.011725293132328308,0.010050251256281407,0.04187604690117253,0.04187604690117253,0.021775544388609715,0.031825795644891124,0.0,0.020100502512562814,0.023450586264656615,0.010050251256281407,0.03350083752093802,0.04187604690117253,0.01507537688442211,0.006700167504187605,0.011725293132328308,0.02680067001675042,0.07202680067001675,0.0,0.02680067001675042,0.0,0.01507537688442211,0.0,0.02680067001675042,0.010050251256281407,0.02847571189279732,0.020100502512562814,0.0,0.0,0.0,0.0,0.02680067001675042,0.0,0.01340033500837521,0.0,0.0,0.0,0.018425460636515914,0.0,0.0,0.035175879396984924,0.0,0.01675041876046901
S9_D9 hbo,0.0,0.0,0.0,0.0,0.0,0.0,0.015300546448087432,0.0,0.024043715846994537,0.015300546448087432,0.024043715846994537,0.03278688524590164,0.018579234972677595,0.0,0.020765027322404372,0.00546448087431694,0.0,0.02185792349726776,0.015300546448087432,0.015300546448087432,0.009836065573770493,0.0,0.0,0.024043715846994537,0.008743169398907104,0.0,0.0,0.04590163934426229,0.025136612021857924,0.03715846994535519,0.03825136612021858,0.04480874316939891,0.014207650273224045,0.025136612021857924,0.03715846994535519,0.04262295081967213,0.048087431693989074,0.03278688524590164,0.025136612021857924,0.0273224043715847,0.024043715846994537,0.04590163934426229,0.02622950819672131,0.029508196721311476,0.046994535519125684,0.025136612021857924,0.0,0.04262295081967213,0.02841530054644809,0.0,0.02622950819672131,0.009836065573770493
S9_D11 hbo,0.0,0.009963768115942028,0.020833333333333332,0.021739130434782608,0.0,0.0,0.025362318840579712,0.0009057971014492754,0.03170289855072464,0.0,0.03351449275362319,0.020833333333333332,0.028079710144927536,0.015398550724637682,0.030797101449275364,0.019021739130434784,0.0,0.019021739130434784,0.0,0.016304347826086956,0.021739130434782608,0.009963768115942028,0.012681159420289856,0.035326086956521736,0.019021739130434784,0.016304347826086956,0.01358695652173913,0.020833333333333332,0.049818840579710144,0.02717391304347826,0.020833333333333332,0.020833333333333332,0.028985507246376812,0.019927536231884056,0.020833333333333332,0.020833333333333332,0.020833333333333332,0.020833333333333332,0.024456521739130436,0.028079710144927536,0.030797101449275364,0.020833333333333332,0.019927536231884056,0.020833333333333332,0.020833333333333332,0.019021739130434784,0.016304347826086956,0.020833333333333332,0.020833333333333332,0.015398550724637682,0.028079710144927536,0.019927536231884056
S10_D9 hbo,0.0,0.005005005005005005,0.007007007007007007,0.007007007007007007,0.0,0.0,0.021021021021021023,0.001001001001001001,0.02902902902902903,0.006006006006006006,0.02902902902902903,0.03003003003003003,0.01701701701701702,0.007007007007007007,0.026026026026026026,0.012012012012012012,0.0,0.022022022022022022,0.006006006006006006,0.013013013013013013,0.016016016016016016,0.006006006006006006,0.007007007007007007,0.02902902902902903,0.015015015015015015,0.007007007007007007,0.0,0.03303303303303303,0.03003003003003003,0.03903903903903904,0.03203203203203203,0.035035035035035036,0.02002002002002002,0.023023023023023025,0.03303303303303303,0.031031031031031032,0.035035035035035036,0.03003003003003003,0.028028028028028028,0.03003003003003003,0.022022022022022022,0.03303303303303303,0.024024024024024024,0.02702702702702703,0.03403403403403404,0.023023023023023025,0.007007007007007007,0.03203203203203203,0.026026026026026026,0.007007007007007007,0.031031031031031032,0.016016016016016016
S10_D10 hbo,0.01031636863823934,0.02200825309491059,0.01031636863823934,0.0,0.015130674002751032,0.018569463548830812,0.03163686382393398,0.017881705639614855,0.018569463548830812,0.009628610729023384,0.01581843191196699,0.02063273727647868,0.011691884456671253,0.02063273727647868,0.017881705639614855,0.016506189821182942,0.0,0.0171939477303989,0.024071526822558458,0.02063273727647868,0.02269601100412655,0.02200825309491059,0.013067400275103164,0.015130674002751032,0.01031636863823934,0.0068775790921595595,0.007565337001375516,0.026134800550206328,0.01581843191196699,0.024071526822558458,0.04676753782668501,0.027510316368638238,0.008940852819807428,0.01581843191196699,0.0343878954607978,0.030949105914718018,0.027510316368638238,0.029573590096286108,0.016506189821182942,0.0171939477303989,0.015130674002751032,0.024071526822558458,0.02200825309491059,0.030261348005502064,0.026822558459422285,0.016506189821182942,0.01031636863823934,0.024071526822558458,0.02888583218707015,0.021320495185694635,0.02269601100412655,0.019944979367262722
S10_D12 hbo,0.0,0.0,0.0,0.0,0.00974025974025974,0.0,0.011363636363636364,0.006493506493506494,0.018668831168831168,0.00974025974025974,0.017857142857142856,0.024350649350649352,0.013798701298701298,0.007305194805194805,0.022727272727272728,0.01461038961038961,0.0,0.025162337662337664,0.020292207792207792,0.00974025974025974,0.007305194805194805,0.0,0.006493506493506494,0.017857142857142856,0.01461038961038961,0.010551948051948052,0.0,0.0349025974025974,0.018668831168831168,0.028409090909090908,0.030844155844155844,0.04626623376623377,0.021103896103896104,0.02922077922077922,0.03814935064935065,0.04301948051948052,0.03814935064935065,0.03571428571428571,0.030032467532467532,0.020292207792207792,0.017857142857142856,0.03409090909090909,0.030032467532467532,0.032467532467532464,0.04626623376623377,0.030032467532467532,0.010551948051948052,0.03165584415584415,0.026785714285714284,0.00974025974025974,0.02922077922077922,0.017857142857142856
S11_D9 hbo,0.0074962518740629685,0.005247376311844078,0.01424287856071964,0.009745127436281859,0.022488755622188907,0.004497751124437781,0.020989505247376312,0.015742128935532233,0.026986506746626688,0.0029985007496251873,0.02623688155922039,0.01424287856071964,0.020239880059970013,0.024737631184407798,0.034482758620689655,0.03298350824587706,0.0,0.031484257871064465,0.012743628185907047,0.011244377811094454,0.023238380809595203,0.013493253373313344,0.015742128935532233,0.0239880059970015,0.020989505247376312,0.03073463268365817,0.011244377811094454,0.009745127436281859,0.023238380809595203,0.014992503748125937,0.009745127436281859,0.018740629685157422,0.044977511244377814,0.029985007496251874,0.02848575712143928,0.02848575712143928,0.009745127436281859,0.019490254872563718,0.02923538230884558,0.014992503748125937,0.012743628185907047,0.009745127436281859,0.024737631184407798,0.020239880059970013,0.022488755622188907,0.0239880059970015,0.024737631184407798,0.009745127436281859,0.01424287856071964,0.024737631184407798,0.025487256371814093,0.026986506746626688
S11_D11 hbo,0.0050041701417848205,0.0,0.004170141784820684,0.0,0.020016680567139282,0.004170141784820684,0.0158465387823186,0.011676396997497914,0.021684737281067557,0.0016680567139282735,0.020850708924103418,0.02335279399499583,0.019182652210175146,0.012510425354462052,0.029190992493744787,0.02335279399499583,0.0,0.03419516263552961,0.014178482068390326,0.0,0.012510425354462052,0.0050041701417848205,0.006672226855713094,0.021684737281067557,0.010842368640533779,0.020016680567139282,0.0050041701417848205,0.019182652210175146,0.01834862385321101,0.019182652210175146,0.019182652210175146,0.030025020850708923,0.03336113427856547,0.0408673894912427,0.03502919099249374,0.0408673894912427,0.019182652210175146,0.030859049207673062,0.03502919099249374,0.019182652210175146,0.01751459549624687,0.019182652210175146,0.03586321934945788,0.030859049207673062,0.03336113427856547,0.03419516263552961,0.0158465387823186,0.019182652210175146,0.02418682235195997,0.0158465387823186,0.02835696413678065,0.022518765638031693
S11_D12 hbo,0.009395184967704051,0.009395184967704051,0.007046388725778039,0.0,0.024662360540223135,0.012918379330593071,0.02172636523781562,0.020551967116852612,0.022900763358778626,0.007633587786259542,0.017028772753963594,0.021139166177334117,0.015854374633000587,0.021139166177334117,0.029359953024075163,0.025836758661186142,0.0,0.028185554903112156,0.021139166177334117,0.011156782149148562,0.022900763358778626,0.015267175572519083,0.012918379330593071,0.015267175572519083,0.013505578391074574,0.0182031708749266,0.009982384028185555,0.019377568995889608,0.013505578391074574,0.018790369935408103,0.02759835584263065,0.026423957721667644,0.02172636523781562,0.024662360540223135,0.04169113329418673,0.03347034644744568,0.01996476805637111,0.029947152084556665,0.020551967116852612,0.014679976512037582,0.012918379330593071,0.019377568995889608,0.023487962419260128,0.028772753963593658,0.02759835584263065,0.020551967116852612,0.011156782149148562,0.019377568995889608,0.024075161479741633,0.020551967116852612,0.02524955960070464,0.019377568995889608
S11_D13 hbo,0.010031347962382446,0.006269592476489028,0.00877742946708464,0.0,0.02006269592476489,0.00877742946708464,0.01755485893416928,0.013166144200626959,0.016300940438871474,0.01128526645768025,0.015047021943573668,0.020689655172413793,0.014420062695924765,0.01567398119122257,0.0219435736677116,0.0219435736677116,0.0,0.025705329153605017,0.025078369905956112,0.010658307210031349,0.01567398119122257,0.010031347962382446,0.00877742946708464,0.01567398119122257,0.01567398119122257,0.018808777429467086,0.00877742946708464,0.025078369905956112,0.013793103448275862,0.019435736677115987,0.026959247648902823,0.03197492163009404,0.025078369905956112,0.02946708463949843,0.035736677115987464,0.045141065830721,0.025078369905956112,0.025705329153605017,0.026332288401253918,0.01567398119122257,0.013166144200626959,0.025078369905956112,0.030721003134796237,0.02445141065830721,0.035736677115987464,0.025705329153605017,0.01818181818181818,0.023824451410658306,0.018808777429467086,0.01755485893416928,0.021316614420062698,0.023197492163009405
S12_D10 hbo,0.0,0.0,0.0,0.0,0.0,0.0,0.014553014553014554,0.0,0.02390852390852391,0.015592515592515593,0.02286902286902287,0.031185031185031187,0.017671517671517672,0.0,0.01975051975051975,0.005197505197505198,0.0,0.02079002079002079,0.015592515592515593,0.016632016632016633,0.009355509355509356,0.0,0.0,0.02286902286902287,0.008316008316008316,0.0,0.0,0.04573804573804574,0.02390852390852391,0.036382536382536385,0.04158004158004158,0.04885654885654886,0.013513513513513514,0.02390852390852391,0.035343035343035345,0.04158004158004158,0.061330561330561334,0.033264033264033266,0.02598752598752599,0.02598752598752599,0.02286902286902287,0.04677754677754678,0.02494802494802495,0.028066528066528068,0.04677754677754678,0.02494802494802495,0.0,0.04054054054054054,0.028066528066528068,0.0,0.02598752598752599,0.009355509355509356
S12_D12 hbo,0.0,0.008849557522123894,0.0,0.0,0.017699115044247787,0.008849557522123894,0.019174041297935103,0.014749262536873156,0.01991150442477876,0.0014749262536873156,0.01696165191740413,0.01991150442477876,0.012536873156342183,0.015486725663716814,0.02654867256637168,0.022861356932153392,0.0,0.02728613569321534,0.019174041297935103,0.01032448377581121,0.014749262536873156,0.008849557522123894,0.01327433628318584,0.016224188790560472,0.011061946902654867,0.014011799410029498,0.0,0.022123893805309734,0.01696165191740413,0.022861356932153392,0.030973451327433628,0.033185840707964605,0.02064896755162242,0.028023598820058997,0.03761061946902655,0.030973451327433628,0.02359882005899705,0.04056047197640118,0.028761061946902654,0.018436578171091445,0.016224188790560472,0.021386430678466076,0.028761061946902654,0.03908554572271387,0.033185840707964605,0.028761061946902654,0.011061946902654867,0.02064896755162242,0.033185840707964605,0.018436578171091445,0.033185840707964605,0.021386430678466076
S12_D14 hbo,0.008178438661710037,0.0037174721189591076,0.0044609665427509295,0.0044609665427509295,0.013382899628252789,0.008178438661710037,0.01486988847583643,0.006691449814126394,0.021561338289962824,0.0,0.020817843866171002,0.017100371747211896,0.012639405204460967,0.011152416356877323,0.026022304832713755,0.0275092936802974,0.0,0.02825278810408922,0.012639405204460967,0.0044609665427509295,0.011152416356877323,0.0044609665427509295,0.010408921933085501,0.020074349442379184,0.01412639405204461,0.019330855018587362,0.0,0.01858736059479554,0.021561338289962824,0.023048327137546468,0.01858736059479554,0.02825278810408922,0.02973977695167286,0.03420074349442379,0.0275092936802974,0.03271375464684015,0.01858736059479554,0.02973977695167286,0.04981412639405204,0.020074349442379184,0.016356877323420074,0.016356877323420074,0.03494423791821561,0.02825278810408922,0.031226765799256505,0.04535315985130112,0.020074349442379184,0.016356877323420074,0.023048327137546468,0.01486988847583643,0.038661710037174724,0.036431226765799254
S13_D6 hbo,0.0,0.008036739380022962,0.008036739380022962,0.008036739380022962,0.0,0.0,0.02525832376578645,0.001148105625717566,0.030998851894374284,0.0,0.030998851894374284,0.027554535017221583,0.01951779563719862,0.009184845005740528,0.029850746268656716,0.014925373134328358,0.0,0.022962112514351322,0.0,0.009184845005740528,0.01951779563719862,0.009184845005740528,0.009184845005740528,0.03444316877152698,0.012629161882893225,0.009184845005740528,0.0,0.027554535017221583,0.03329506314580941,0.03673938002296211,0.027554535017221583,0.02870264064293915,0.024110218140068886,0.024110218140068886,0.027554535017221583,0.02640642939150402,0.02870264064293915,0.02870264064293915,0.029850746268656716,0.03559127439724455,0.022962112514351322,0.02870264064293915,0.024110218140068886,0.027554535017221583,0.02870264064293915,0.022962112514351322,0.009184845005740528,0.02870264064293915,0.02640642939150402,0.009184845005740528,0.03329506314580941,0.01951779563719862
S13_D11 hbo,0.0,0.0,0.01881720430107527,0.020161290322580645,0.0,0.0,0.01881720430107527,0.0,0.026881720430107527,0.0,0.026881720430107527,0.02956989247311828,0.043010752688172046,0.0,0.025537634408602152,0.006720430107526882,0.0,0.025537634408602152,0.0,0.0,0.012096774193548387,0.0,0.0,0.028225806451612902,0.004032258064516129,0.0,0.021505376344086023,0.02956989247311828,0.04973118279569892,0.02956989247311828,0.02956989247311828,0.02956989247311828,0.0228494623655914,0.02956989247311828,0.02956989247311828,0.02956989247311828,0.02956989247311828,0.02956989247311828,0.028225806451612902,0.02956989247311828,0.04838709677419355,0.02956989247311828,0.02956989247311828,0.02956989247311828,0.02956989247311828,0.028225806451612902,0.0,0.02956989247311828,0.02956989247311828,0.0,0.02956989247311828,0.012096774193548387
S13_D13 hbo,0.0,0.0,0.0,0.0,0.0,0.0,0.016374269005847954,0.0,0.022222222222222223,0.017543859649122806,0.022222222222222223,0.03274853801169591,0.019883040935672516,0.0,0.021052631578947368,0.005847953216374269,0.0,0.021052631578947368,0.017543859649122806,0.01871345029239766,0.010526315789473684,0.0,0.0,0.025730994152046785,0.00935672514619883,0.0,0.0,0.044444444444444446,0.02456140350877193,0.03625730994152047,0.03625730994152047,0.044444444444444446,0.0152046783625731,0.02456140350877193,0.03625730994152047,0.042105263157894736,0.05146198830409357,0.031578947368421054,0.023391812865497075,0.028070175438596492,0.023391812865497075,0.050292397660818715,0.02456140350877193,0.028070175438596492,0.0456140350877193,0.023391812865497075,0.0,0.04327485380116959,0.026900584795321637,0.0,0.02456140350877193,0.010526315789473684
S13_D15 hbo,0.006329113924050633,0.006329113924050633,0.006329113924050633,0.0,0.01977848101265823,0.006329113924050633,0.01740506329113924,0.012658227848101266,0.01661392405063291,0.005537974683544304,0.01661392405063291,0.0189873417721519,0.013449367088607595,0.013449367088607595,0.022943037974683545,0.021360759493670885,0.0,0.028481012658227847,0.01977848101265823,0.004746835443037975,0.011075949367088608,0.006329113924050633,0.012658227848101266,0.01740506329113924,0.014240506329113924,0.01819620253164557,0.006329113924050633,0.0189873417721519,0.01819620253164557,0.0189873417721519,0.0245253164556962,0.029272151898734177,0.02689873417721519,0.03639240506329114,0.030854430379746837,0.038765822784810125,0.0189873417721519,0.030854430379746837,0.03481012658227848,0.01819620253164557,0.01740506329113924,0.01819620253164557,0.04113924050632911,0.030063291139240507,0.03243670886075949,0.03401898734177215,0.022151898734177215,0.01819620253164557,0.023734177215189875,0.01740506329113924,0.027689873417721517,0.028481012658227847
S14_D12 hbo,0.0,0.012801204819277108,0.0,0.0,0.01957831325301205,0.009789156626506024,0.023343373493975902,0.017319277108433735,0.01882530120481928,0.0,0.016566265060240965,0.01957831325301205,0.012801204819277108,0.017319277108433735,0.02710843373493976,0.023343373493975902,0.0,0.0286144578313253,0.01957831325301205,0.012801204819277108,0.016566265060240965,0.012801204819277108,0.01355421686746988,0.016566265060240965,0.009789156626506024,0.01355421686746988,0.0,0.01957831325301205,0.017319277108433735,0.02033132530120482,0.030873493975903613,0.0286144578313253,0.02033132530120482,0.02786144578313253,0.03614457831325301,0.029367469879518073,0.02033132530120482,0.038403614457831324,0.02710843373493976,0.01882530120481928,0.016566265060240965,0.01957831325301205,0.02786144578313253,0.04141566265060241,0.030873493975903613,0.02710843373493976,0.010542168674698794,0.01957831325301205,0.03463855421686747,0.02108433734939759,0.03237951807228916,0.02108433734939759
S14_D13 hbo,0.0,0.0,0.0,0.0,0.013375295043273014,0.0,0.011014948859166011,0.006294256490952006,0.01730920535011802,0.011014948859166011,0.01730920535011802,0.023603461841070025,0.013375295043273014,0.007081038552321007,0.022816679779701022,0.015735641227380016,0.0,0.02832415420928403,0.023603461841070025,0.011014948859166011,0.007081038552321007,0.0,0.006294256490952006,0.01730920535011802,0.014162077104642014,0.012588512981904013,0.0,0.03304484657749803,0.01809598741148702,0.02675059008654603,0.02753737214791503,0.041699449252557044,0.023603461841070025,0.03147128245476003,0.03619197482297404,0.044059795436664044,0.03540519276160504,0.03304484657749803,0.03147128245476003,0.01966955153422502,0.01730920535011802,0.03383162863886703,0.03225806451612903,0.03147128245476003,0.046420141620771044,0.03147128245476003,0.013375295043273014,0.03068450039339103,0.025177025963808025,0.00865460267505901,0.02832415420928403,0.01966955153422502
S14_D14 hbo,0.009306260575296108,0.0,0.0,0.0,0.015228426395939087,0.009306260575296108,0.011844331641285956,0.00676818950930626,0.018612521150592216,0.0,0.018612521150592216,0.0194585448392555,0.014382402707275803,0.007614213197969543,0.024534686971235193,0.02622673434856176,0.0,0.030456852791878174,0.014382402707275803,0.0,0.007614213197969543,0.0,0.00676818950930626,0.017766497461928935,0.010998307952622674,0.01692047377326565,0.0,0.02030456852791878,0.0194585448392555,0.02030456852791878,0.02030456852791878,0.031302876480541454,0.028764805414551606,0.03807106598984772,0.031302876480541454,0.03722504230118443,0.02030456852791878,0.03299492385786802,0.051607445008460234,0.018612521150592216,0.018612521150592216,0.018612521150592216,0.03976311336717428,0.032148900169204735,0.03468697123519458,0.050761421319796954,0.017766497461928935,0.018612521150592216,0.025380710659898477,0.011844331641285956,0.03807106598984772,0.03637901861252115
S14_D16 hbo,0.01642512077294686,0.025120772946859903,0.025120772946859903,0.008695652173913044,0.02705314009661836,0.015458937198067632,0.028019323671497585,0.020289855072463767,0.012560386473429951,0.007729468599033816,0.017391304347826087,0.0,0.0,0.03961352657004831,0.022222222222222223,0.03671497584541063,0.0,0.017391304347826087,0.03285024154589372,0.02318840579710145,0.022222222222222223,0.02608695652173913,0.02995169082125604,0.01642512077294686,0.033816425120772944,0.04057971014492753,0.012560386473429951,0.0,0.015458937198067632,0.00676328502415459,0.01352657004830918,0.012560386473429951,0.033816425120772944,0.020289855072463767,0.018357487922705314,0.02995169082125604,0.0,0.014492753623188406,0.02608695652173913,0.007729468599033816,0.0,0.0,0.028019323671497585,0.01352657004830918,0.01642512077294686,0.020289855072463767,0.051207729468599035,0.0,0.005797101449275362,0.043478260869565216,0.020289855072463767,0.044444444444444446
S15_D13 hbo,0.0,0.0,0.0,0.0,0.0,0.0,0.016786570743405275,0.0,0.022781774580335732,0.014388489208633094,0.022781774580335732,0.03357314148681055,0.02038369304556355,0.0,0.02158273381294964,0.005995203836930456,0.0,0.02158273381294964,0.014388489208633094,0.014388489208633094,0.01079136690647482,0.0,0.0,0.026378896882494004,0.009592326139088728,0.0,0.0,0.04436450839328537,0.025179856115107913,0.03717026378896882,0.03717026378896882,0.045563549160671464,0.015587529976019185,0.025179856115107913,0.03717026378896882,0.04316546762589928,0.046762589928057555,0.03237410071942446,0.023980815347721823,0.02877697841726619,0.023980815347721823,0.046762589928057555,0.025179856115107913,0.02877697841726619,0.045563549160671464,0.023980815347721823,0.0,0.04436450839328537,0.027577937649880094,0.0,0.025179856115107913,0.01079136690647482
S15_D15 hbo,0.0,0.012386457473162676,0.0,0.0,0.01486374896779521,0.010734929810074319,0.023947151114781174,0.01568951279933939,0.021469859620148638,0.0,0.018992568125516102,0.021469859620148638,0.014037985136251032,0.01486374896779521,0.02972749793559042,0.018166804293971925,0.00495458298926507,0.02559867877786953,0.013212221304706853,0.012386457473162676,0.016515276630883566,0.012386457473162676,0.018166804293971925,0.026424442609413706,0.018166804293971925,0.017341040462427744,0.0,0.022295623451692816,0.018992568125516102,0.022295623451692816,0.03303055326176713,0.027250206440957887,0.01568951279933939,0.023947151114781174,0.03468208092485549,0.02559867877786953,0.022295623451692816,0.03633360858794385,0.023947151114781174,0.02064409578860446,0.018166804293971925,0.02064409578860446,0.02477291494632535,0.038810900082576386,0.027250206440957887,0.023947151114781174,0.00495458298926507,0.02064409578860446,0.04706853839801817,0.017341040462427744,0.03137902559867878,0.016515276630883566
S15_D16 hbo,0.01718213058419244,0.03505154639175258,0.021993127147766325,0.006185567010309278,0.0288659793814433,0.024054982817869417,0.037800687285223365,0.03230240549828179,0.018556701030927835,0.007560137457044674,0.015807560137457044,0.004123711340206186,0.004810996563573883,0.04604810996563574,0.028178694158075602,0.04054982817869416,0.0,0.017869415807560136,0.029553264604810996,0.0288659793814433,0.03230240549828179,0.03848797250859107,0.028178694158075602,0.013745704467353952,0.02336769759450172,0.03367697594501718,0.015120274914089347,0.0,0.013058419243986255,0.004810996563573883,0.019243986254295534,0.008934707903780068,0.02542955326460481,0.013745704467353952,0.02542955326460481,0.01993127147766323,0.0,0.017869415807560136,0.013745704467353952,0.005498281786941581,0.0,0.0,0.015120274914089347,0.020618556701030927,0.008934707903780068,0.009621993127147767,0.030927835051546393,0.0,0.01443298969072165,0.05223367697594502,0.019243986254295534,0.030927835051546393
S16_D14 hbo,0.014986376021798364,0.009536784741144414,0.006130790190735695,0.006130790190735695,0.013623978201634877,0.010899182561307902,0.02111716621253406,0.011580381471389645,0.023841961852861037,0.0,0.027929155313351498,0.01634877384196185,0.011580381471389645,0.017711171662125342,0.02997275204359673,0.029291553133514985,0.0,0.02656675749318801,0.013623978201634877,0.011580381471389645,0.017711171662125342,0.010217983651226158,0.0170299727520436,0.02111716621253406,0.01430517711171662,0.017711171662125342,0.0,0.0170299727520436,0.021798365122615803,0.021798365122615803,0.022479564032697547,0.02316076294277929,0.02316076294277929,0.023841961852861037,0.02861035422343324,0.02452316076294278,0.0170299727520436,0.029291553133514985,0.0340599455040872,0.019754768392370572,0.014986376021798364,0.015667574931880108,0.02452316076294278,0.02997275204359673,0.025204359673024524,0.02997275204359673,0.01430517711171662,0.015667574931880108,0.02656675749318801,0.017711171662125342,0.048365122615803814,0.02997275204359673
S16_D16 hbo,0.017894012388162423,0.01995870612525809,0.016517549896765314,0.006194081211286993,0.02202339986235375,0.022711631108052306,0.028217481073640742,0.017205781142463867,0.015829318651066758,0.0055058499655884375,0.015141087405368204,0.006194081211286993,0.006194081211286993,0.028905712319339298,0.024088093599449415,0.038540949759119064,0.0,0.02064693737095664,0.025464556090846524,0.016517549896765314,0.02339986235375086,0.02064693737095664,0.02339986235375086,0.015141087405368204,0.022711631108052306,0.029593943565037854,0.008258774948382657,0.006194081211286993,0.015141087405368204,0.011011699931176875,0.018582243633860976,0.015141087405368204,0.02752924982794219,0.01995870612525809,0.02202339986235375,0.026841018582243633,0.006194081211286993,0.01995870612525809,0.03303509979353063,0.01169993117687543,0.006194081211286993,0.006194081211286993,0.02615278733654508,0.019270474879559532,0.017894012388162423,0.028905712319339298,0.03372333103922918,0.006194081211286993,0.013764624913971095,0.03234686854783207,0.029593943565037854,0.04955264969029594
