,S1_D1 hbo,S1_D3 hbo,S2_D1 hbo,S2_D2 hbo,S2_D4 hbo,S3_D1 hbo,S3_D3 hbo,S3_D4 hbo,S3_D5 hbo,S4_D2 hbo,S4_D4 hbo,S4_D6 hbo,S4_D11 hbo,S5_D3 hbo,S5_D5 hbo,S5_D7 hbo,S6_D4 hbo,S6_D5 hbo,S6_D6 hbo,S6_D8 hbo,S7_D5 hbo,S7_D7 hbo,S7_D8 hbo,S8_D6 hbo,S8_D8 hbo,S8_D15 hbo,S9_D2 hbo,S9_D9 hbo,S9_D11 hbo,S10_D9 hbo,S10_D10 hbo,S10_D12 hbo,S11_D9 hbo,S11_D11 hbo,S11_D12 hbo,S11_D13 hbo,S12_D10 hbo,S12_D12 hbo,S12_D14 hbo,S13_D6 hbo,S13_D11 hbo,S13_D13 hbo,S13_D15 hbo,S14_D12 hbo,S14_D13 hbo,S14_D14 hbo,S14_D16 hbo,S15_D13 hbo,S15_D15 hbo,S15_D16 hbo,S16_D14 hbo,S16_D16 hbo
S1_D1 hbo,0.06382978723404255,0.0425531914893617,0.0,0.03723404255319149,0.0,0.0425531914893617,0.05319148936170213,0.0425531914893617,0.06382978723404255,0.0,0.0,0.0,0.0,0.0,0.06382978723404255,0.05851063829787234,0.0,0.02127659574468085,0.0,0.0,0.0,0.031914893617021274,0.026595744680851064,0.0,0.0,0.0,0.06382978723404255,0.0,0.0,0.047872340425531915,0.06382978723404255,0.0425531914893617,0.0,0.0,0.0,0.0,0.0,0.0425531914893617,0.026595744680851064,0.0,0.0,0.0,0.0,0.06382978723404255,0.0,0.0,0.031914893617021274,0.0,0.0,0.0,0.05319148936170213,0.015957446808510637
S1_D3 hbo,0.05263157894736842,0.046052631578947366,0.0,0.046052631578947366,0.0,0.046052631578947366,0.05263157894736842,0.05263157894736842,0.05263157894736842,0.0,0.0,0.0,0.0,0.0,0.05263157894736842,0.05263157894736842,0.0,0.02631578947368421,0.0,0.0,0.0,0.039473684210526314,0.02631578947368421,0.0,0.0,0.0,0.05263157894736842,0.0,0.0,0.05263157894736842,0.05263157894736842,0.046052631578947366,0.0,0.0,0.0,0.0,0.0,0.05263157894736842,0.03289473684210526,0.0,0.0,0.0,0.0,0.05263157894736842,0.0,0.0,0.039473684210526314,0.0,0.0,0.0,0.05263157894736842,0.019736842105263157
S2_D1 hbo,0.0,0.0,0.0,0.0,0.0,0.0,0.0,0.0,0.0,0.0,0.0,0.0,0.0,0.0,0.0,0.0,0.0,0.0,0.0,0.0,0.0,0.0,0.0,0.0,0.0,0.0,0.0,0.0,0.0,0.0,0.0,0.0,0.0,0.0,0.0,0.0,0.0,0.0,0.0,0.0,0.0,0.0,0.0,0.0,0.0,0.0,0.0,0.0,0.0,0.0,0.0,0.0
S2_D2 hbo,0.056,0.04,0.0,0.048,0.0,0.056,0.056,0.048,0.056,0.0,0.0,0.0,0.0,0.0,0.056,0.056,0.0,0.024,0.0,0.0,0.0,0.04,0.016,0.0,0.0,0.0,0.056,0.0,0.0,0.048,0.056,0.04,0.0,0.0,0.0,0.0,0.0,0.048,0.04,0.0,0.0,0.0,0.0,0.056,0.0,0.0,0.032,0.0,0.0,0.0,0.056,0.016
S2_D4 hbo,0.0,0.0,0.0,0.0,0.0,0.0,0.0,0.0,0.0,0.0,0.0,0.0,0.0,0.0,0.0,0.0,0.0,0.0,0.0,0.0,0.0,0.0,0.0,0.0,0.0,0.0,0.0,0.0,0.0,0.0,0.0,0.0,0.0,0.0,0.0,0.0,0.0,0.0,0.0,0.0,0.0,0.0,0.0,0.0,0.0,0.0,0.0,0.0,0.0,0.0,0.0,0.0
S3_D1 hbo,0.06015037593984962,0.03759398496240601,0.0,0.045112781954887216,0.0,0.05263157894736842,0.05263157894736842,0.045112781954887216,0.06015037593984962,0.0,0.0,0.0,0.0,0.0,0.06015037593984962,0.06015037593984962,0.0,0.022556390977443608,0.0,0.0,0.0,0.03759398496240601,0.015037593984962405,0.0,0.0,0.0,0.06015037593984962,0.0,0.0,0.045112781954887216,0.06015037593984962,0.03759398496240601,0.0,0.0,0.0,0.0,0.0,0.045112781954887216,0.03759398496240601,0.0,0.0,0.0,0.0,0.06015037593984962,0.0,0.0,0.03007518796992481,0.0,0.0,0.0,0.06015037593984962,0.015037593984962405
S3_D3 hbo,0.06060606060606061,0.04040404040404041,0.0,0.03535353535353535,0.0,0.04040404040404041,0.0707070707070707,0.04040404040404041,0.05555555555555555,0.0,0.0,0.0,0.0,0.0,0.05555555555555555,0.06565656565656566,0.0,0.020202020202020204,0.0,0.0,0.0,0.030303030303030304,0.03535353535353535,0.0,0.0,0.0,0.05555555555555555,0.0,0.0,0.05555555555555555,0.0707070707070707,0.045454545454545456,0.0,0.0,0.0,0.0,0.0,0.04040404040404041,0.025252525252525252,0.0,0.0,0.0,0.0,0.06060606060606061,0.0,0.0,0.030303030303030304,0.0,0.0,0.0,0.050505050505050504,0.015151515151515152
S3_D4 hbo,0.0547945205479452,0.0410958904109589,0.0,0.04794520547945205,0.0,0.0547945205479452,0.0547945205479452,0.04794520547945205,0.0547945205479452,0.0,0.0,0.0,0.0,0.0,0.0547945205479452,0.0547945205479452,0.0,0.0273972602739726,0.0,0.0,0.0,0.0410958904109589,0.02054794520547945,0.0,0.0,0.0,0.0547945205479452,0.0,0.0,0.04794520547945205,0.0547945205479452,0.0410958904109589,0.0,0.0,0.0,0.0,0.0,0.04794520547945205,0.03424657534246575,0.0,0.0,0.0,0.0,0.0547945205479452,0.0,0.0,0.03424657534246575,0.0,0.0,0.0,0.0547945205479452,0.02054794520547945
S3_D5 hbo,0.0625,0.03977272727272727,0.0,0.03977272727272727,0.0,0.045454545454545456,0.05113636363636364,0.045454545454545456,0.0625,0.0,0.0,0.0,0.0,0.0,0.0625,0.056818181818181816,0.0,0.022727272727272728,0.0,0.0,0.0,0.03409090909090909,0.022727272727272728,0.0,0.0,0.0,0.0625,0.0,0.0,0.045454545454545456,0.0625,0.03977272727272727,0.0,0.0,0.0,0.0,0.0,0.045454545454545456,0.028409090909090908,0.0,0.0,0.0,0.0,0.0625,0.0,0.0,0.03409090909090909,0.0,0.0,0.0,0.056818181818181816,0.017045454545454544
S4_D2 hbo,0.0,0.0,0.0,0.0,0.0,0.0,0.0,0.0,0.0,0.0,0.0,0.0,0.0,0.0,0.0,0.0,0.0,0.0,0.0,0.0,0.0,0.0,0.0,0.0,0.0,0.0,0.0,0.0,0.0,0.0,0.0,0.0,0.0,0.0,0.0,0.0,0.0,0.0,0.0,0.0,0.0,0.0,0.0,0.0,0.0,0.0,0.0,0.0,0.0,0.0,0.0,0.0
S4_D4 hbo,0.0,0.0,0.0,0.0,0.0,0.0,0.0,0.0,0.0,0.0,0.0,0.0,0.0,0.0,0.0,0.0,0.0,0.0,0.0,0.0,0.0,0.0,0.0,0.0,0.0,0.0,0.0,0.0,0.0,0.0,0.0,0.0,0.0,0.0,0.0,0.0,0.0,0.0,0.0,0.0,0.0,0.0,0.0,0.0,0.0,0.0,0.0,0.0,0.0,0.0,0.0,0.0
S4_D6 hbo,0.0,0.0,0.0,0.0,0.0,0.0,0.0,0.0,0.0,0.0,0.0,0.0,0.0,0.0,0.0,0.0,0.0,0.0,0.0,0.0,0.0,0.0,0.0,0.0,0.0,0.0,0.0,0.0,0.0,0.0,0.0,0.0,0.0,0.0,0.0,0.0,0.0,0.0,0.0,0.0,0.0,0.0,0.0,0.0,0.0,0.0,0.0,0.0,0.0,0.0,0.0,0.0
S4_D11 hbo,0.0,0.0,0.0,0.0,0.0,0.0,0.0,0.0,0.0,0.0,0.0,0.0,0.0,0.0,0.0,0.0,0.0,0.0,0.0,0.0,0.0,0.0,0.0,0.0,0.0,0.0,0.0,0.0,0.0,0.0,0.0,0.0,0.0,0.0,0.0,0.0,0.0,0.0,0.0,0.0,0.0,0.0,0.0,0.0,0.0,0.0,0.0,0.0,0.0,0.0,0.0,0.0
S5_D3 hbo,0.0,0.0,0.0,0.0,0.0,0.0,0.0,0.0,0.0,0.0,0.0,0.0,0.0,0.0,0.0,0.0,0.0,0.0,0.0,0.0,0.0,0.0,0.0,0.0,0.0,0.0,0.0,0.0,0.0,0.0,0.0,0.0,0.0,0.0,0.0,0.0,0.0,0.0,0.0,0.0,0.0,0.0,0.0,0.0,0.0,0.0,0.0,0.0,0.0,0.0,0.0,0.0
S5_D5 hbo,0.0625,0.03977272727272727,0.0,0.03977272727272727,0.0,0.045454545454545456,0.05113636363636364,0.045454545454545456,0.0625,0.0,0.0,0.0,0.0,0.0,0.0625,0.056818181818181816,0.0,0.022727272727272728,0.0,0.0,0.0,0.03409090909090909,0.022727272727272728,0.0,0.0,0.0,0.0625,0.0,0.0,0.045454545454545456,0.0625,0.03977272727272727,0.0,0.0,0.0,0.0,0.0,0.045454545454545456,0.028409090909090908,0.0,0.0,0.0,0.0,0.0625,0.0,0.0,0.03409090909090909,0.0,0.0,0.0,0.056818181818181816,0.017045454545454544
S5_D7 hbo,0.0663265306122449,0.04081632653061224,0.0,0.03571428571428571,0.0,0.04081632653061224,0.05612244897959184,0.04081632653061224,0.061224489795918366,0.0,0.0,0.0,0.0,0.0,0.061224489795918366,0.061224489795918366,0.0,0.02040816326530612,0.0,0.0,0.0,0.030612244897959183,0.030612244897959183,0.0,0.0,0.0,0.061224489795918366,0.0,0.0,0.05102040816326531,0.0663265306122449,0.04591836734693878,0.0,0.0,0.0,0.0,0.0,0.04081632653061224,0.025510204081632654,0.0,0.0,0.0,0.0,0.0663265306122449,0.0,0.0,0.030612244897959183,0.0,0.0,0.0,0.05102040816326531,0.015306122448979591
S6_D4 hbo,0.0,0.0,0.0,0.0,0.0,0.0,0.0,0.0,0.0,0.0,0.0,0.0,0.0,0.0,0.0,0.0,0.0,0.0,0.0,0.0,0.0,0.0,0.0,0.0,0.0,0.0,0.0,0.0,0.0,0.0,0.0,0.0,0.0,0.0,0.0,0.0,0.0,0.0,0.0,0.0,0.0,0.0,0.0,0.0,0.0,0.0,0.0,0.0,0.0,0.0,0.0,0.0
S6_D5 hbo,0.04819277108433735,0.04819277108433735,0.0,0.04819277108433735,0.0,0.04819277108433735,0.04819277108433735,0.04819277108433735,0.04819277108433735,0.0,0.0,0.0,0.0,0.0,0.04819277108433735,0.04819277108433735,0.0,0.03614457831325301,0.0,0.0,0.0,0.04819277108433735,0.024096385542168676,0.0,0.0,0.0,0.04819277108433735,0.0,0.0,0.04819277108433735,0.04819277108433735,0.04819277108433735,0.0,0.0,0.0,0.0,0.0,0.04819277108433735,0.04819277108433735,0.0,0.0,0.0,0.0,0.04819277108433735,0.0,0.0,0.04819277108433735,0.0,0.0,0.0,0.04819277108433735,0.024096385542168676
S6_D6 hbo,0.0,0.0,0.0,0.0,0.0,0.0,0.0,0.0,0.0,0.0,0.0,0.0,0.0,0.0,0.0,0.0,0.0,0.0,0.0,0.0,0.0,0.0,0.0,0.0,0.0,0.0,0.0,0.0,0.0,0.0,0.0,0.0,0.0,0.0,0.0,0.0,0.0,0.0,0.0,0.0,0.0,0.0,0.0,0.0,0.0,0.0,0.0,0.0,0.0,0.0,0.0,0.0
S6_D8 hbo,0.0,0.0,0.0,0.0,0.0,0.0,0.0,0.0,0.0,0.0,0.0,0.0,0.0,0.0,0.0,0.0,0.0,0.0,0.0,0.0,0.0,0.0,0.0,0.0,0.0,0.0,0.0,0.0,0.0,0.0,0.0,0.0,0.0,0.0,0.0,0.0,0.0,0.0,0.0,0.0,0.0,0.0,0.0,0.0,0.0,0.0,0.0,0.0,0.0,0.0,0.0,0.0
S7_D5 hbo,0.0,0.0,0.0,0.0,0.0,0.0,0.0,0.0,0.0,0.0,0.0,0.0,0.0,0.0,0.0,0.0,0.0,0.0,0.0,0.0,0.0,0.0,0.0,0.0,0.0,0.0,0.0,0.0,0.0,0.0,0.0,0.0,0.0,0.0,0.0,0.0,0.0,0.0,0.0,0.0,0.0,0.0,0.0,0.0,0.0,0.0,0.0,0.0,0.0,0.0,0.0,0.0
S7_D7 hbo,0.05217391304347826,0.043478260869565216,0.0,0.05217391304347826,0.0,0.05217391304347826,0.05217391304347826,0.05217391304347826,0.05217391304347826,0.0,0.0,0.0,0.0,0.0,0.05217391304347826,0.05217391304347826,0.0,0.02608695652173913,0.0,0.0,0.0,0.043478260869565216,0.017391304347826087,0.0,0.0,0.0,0.05217391304347826,0.0,0.0,0.05217391304347826,0.05217391304347826,0.043478260869565216,0.0,0.0,0.0,0.0,0.0,0.05217391304347826,0.043478260869565216,0.0,0.0,0.0,0.0,0.05217391304347826,0.0,0.0,0.034782608695652174,0.0,0.0,0.0,0.05217391304347826,0.017391304347826087
S7_D8 hbo,0.05785123966942149,0.049586776859504134,0.0,0.03305785123966942,0.0,0.03305785123966942,0.05785123966942149,0.04132231404958678,0.049586776859504134,0.0,0.0,0.0,0.0,0.0,0.049586776859504134,0.05785123966942149,0.0,0.03305785123966942,0.0,0.0,0.0,0.03305785123966942,0.049586776859504134,0.0,0.0,0.0,0.049586776859504134,0.0,0.0,0.05785123966942149,0.05785123966942149,0.05785123966942149,0.0,0.0,0.0,0.0,0.0,0.04132231404958678,0.024793388429752067,0.0,0.0,0.0,0.0,0.05785123966942149,0.0,0.0,0.04132231404958678,0.0,0.0,0.0,0.04132231404958678,0.024793388429752067
S8_D6 hbo,0.0,0.0,0.0,0.0,0.0,0.0,0.0,0.0,0.0,0.0,0.0,0.0,0.0,0.0,0.0,0.0,0.0,0.0,0.0,0.0,0.0,0.0,0.0,0.0,0.0,0.0,0.0,0.0,0.0,0.0,0.0,0.0,0.0,0.0,0.0,0.0,0.0,0.0,0.0,0.0,0.0,0.0,0.0,0.0,0.0,0.0,0.0,0.0,0.0,0.0,0.0,0.0
S8_D8 hbo,0.0,0.0,0.0,0.0,0.0,0.0,0.0,0.0,0.0,0.0,0.0,0.0,0.0,0.0,0.0,0.0,0.0,0.0,0.0,0.0,0.0,0.0,0.0,0.0,0.0,0.0,0.0,0.0,0.0,0.0,0.0,0.0,0.0,0.0,0.0,0.0,0.0,0.0,0.0,0.0,0.0,0.0,0.0,0.0,0.0,0.0,0.0,0.0,0.0,0.0,0.0,0.0
S8_D15 hbo,0.0,0.0,0.0,0.0,0.0,0.0,0.0,0.0,0.0,0.0,0.0,0.0,0.0,0.0,0.0,0.0,0.0,0.0,0.0,0.0,0.0,0.0,0.0,0.0,0.0,0.0,0.0,0.0,0.0,0.0,0.0,0.0,0.0,0.0,0.0,0.0,0.0,0.0,0.0,0.0,0.0,0.0,0.0,0.0,0.0,0.0,0.0,0.0,0.0,0.0,0.0,0.0
S9_D2 hbo,0.0625,0.03977272727272727,0.0,0.03977272727272727,0.0,0.045454545454545456,0.05113636363636364,0.045454545454545456,0.0625,0.0,0.0,0.0,0.0,0.0,0.0625,0.056818181818181816,0.0,0.022727272727272728,0.0,0.0,0.0,0.03409090909090909,0.022727272727272728,0.0,0.0,0.0,0.0625,0.0,0.0,0.045454545454545456,0.0625,0.03977272727272727,0.0,0.0,0.0,0.0,0.0,0.045454545454545456,0.028409090909090908,0.0,0.0,0.0,0.0,0.0625,0.0,0.0,0.03409090909090909,0.0,0.0,0.0,0.056818181818181816,0.017045454545454544
S9_D9 hbo,0.0,0.0,0.0,0.0,0.0,0.0,0.0,0.0,0.0,0.0,0.0,0.0,0.0,0.0,0.0,0.0,0.0,0.0,0.0,0.0,0.0,0.0,0.0,0.0,0.0,0.0,0.0,0.0,0.0,0.0,0.0,0.0,0.0,0.0,0.0,0.0,0.0,0.0,0.0,0.0,0.0,0.0,0.0,0.0,0.0,0.0,0.0,0.0,0.0,0.0,0.0,0.0
S9_D11 hbo,0.0,0.0,0.0,0.0,0.0,0.0,0.0,0.0,0.0,0.0,0.0,0.0,0.0,0.0,0.0,0.0,0.0,0.0,0.0,0.0,0.0,0.0,0.0,0.0,0.0,0.0,0.0,0.0,0.0,0.0,0.0,0.0,0.0,0.0,0.0,0.0,0.0,0.0,0.0,0.0,0.0,0.0,0.0,0.0,0.0,0.0,0.0,0.0,0.0,0.0,0.0,0.0
S10_D9 hbo,0.06043956043956044,0.04395604395604396,0.0,0.038461538461538464,0.0,0.04395604395604396,0.06043956043956044,0.04395604395604396,0.054945054945054944,0.0,0.0,0.0,0.0,0.0,0.054945054945054944,0.06043956043956044,0.0,0.02197802197802198,0.0,0.0,0.0,0.03296703296703297,0.03296703296703297,0.0,0.0,0.0,0.054945054945054944,0.0,0.0,0.054945054945054944,0.06043956043956044,0.04945054945054945,0.0,0.0,0.0,0.0,0.0,0.04395604395604396,0.027472527472527472,0.0,0.0,0.0,0.0,0.06043956043956044,0.0,0.0,0.03296703296703297,0.0,0.0,0.0,0.04945054945054945,0.016483516483516484
S10_D10 hbo,0.06467661691542288,0.03980099502487562,0.0,0.03482587064676617,0.0,0.03980099502487562,0.05970149253731343,0.03980099502487562,0.05970149253731343,0.0,0.0,0.0,0.0,0.0,0.05970149253731343,0.06467661691542288,0.0,0.01990049751243781,0.0,0.0,0.0,0.029850746268656716,0.03482587064676617,0.0,0.0,0.0,0.05970149253731343,0.0,0.0,0.05472636815920398,0.06965174129353234,0.04477611940298507,0.0,0.0,0.0,0.0,0.0,0.03980099502487562,0.024875621890547265,0.0,0.0,0.0,0.0,0.06467661691542288,0.0,0.0,0.029850746268656716,0.0,0.0,0.0,0.04975124378109453,0.014925373134328358
S10_D12 hbo,0.054878048780487805,0.04878048780487805,0.0,0.042682926829268296,0.0,0.042682926829268296,0.054878048780487805,0.04878048780487805,0.054878048780487805,0.0,0.0,0.0,0.0,0.0,0.054878048780487805,0.054878048780487805,0.0,0.024390243902439025,0.0,0.0,0.0,0.036585365853658534,0.03048780487804878,0.0,0.0,0.0,0.054878048780487805,0.0,0.0,0.054878048780487805,0.054878048780487805,0.04878048780487805,0.0,0.0,0.0,0.0,0.0,0.04878048780487805,0.03048780487804878,0.0,0.0,0.0,0.0,0.054878048780487805,0.0,0.0,0.036585365853658534,0.0,0.0,0.0,0.04878048780487805,0.018292682926829267
S11_D9 hbo,0.0,0.0,0.0,0.0,0.0,0.0,0.0,0.0,0.0,0.0,0.0,0.0,0.0,0.0,0.0,0.0,0.0,0.0,0.0,0.0,0.0,0.0,0.0,0.0,0.0,0.0,0.0,0.0,0.0,0.0,0.0,0.0,0.0,0.0,0.0,0.0,0.0,0.0,0.0,0.0,0.0,0.0,0.0,0.0,0.0,0.0,0.0,0.0,0.0,0.0,0.0,0.0
S11_D11 hbo,0.0,0.0,0.0,0.0,0.0,0.0,0.0,0.0,0.0,0.0,0.0,0.0,0.0,0.0,0.0,0.0,0.0,0.0,0.0,0.0,0.0,0.0,0.0,0.0,0.0,0.0,0.0,0.0,0.0,0.0,0.0,0.0,0.0,0.0,0.0,0.0,0.0,0.0,0.0,0.0,0.0,0.0,0.0,0.0,0.0,0.0,0.0,0.0,0.0,0.0,0.0,0.0
S11_D12 hbo,0.0,0.0,0.0,0.0,0.0,0.0,0.0,0.0,0.0,0.0,0.0,0.0,0.0,0.0,0.0,0.0,0.0,0.0,0.0,0.0,0.0,0.0,0.0,0.0,0.0,0.0,0.0,0.0,0.0,0.0,0.0,0.0,0.0,0.0,0.0,0.0,0.0,0.0,0.0,0.0,0.0,0.0,0.0,0.0,0.0,0.0,0.0,0.0,0.0,0.0,0.0,0.0
S11_D13 hbo,0.0,0.0,0.0,0.0,0.0,0.0,0.0,0.0,0.0,0.0,0.0,0.0,0.0,0.0,0.0,0.0,0.0,0.0,0.0,0.0,0.0,0.0,0.0,0.0,0.0,0.0,0.0,0.0,0.0,0.0,0.0,0.0,0.0,0.0,0.0,0.0,0.0,0.0,0.0,0.0,0.0,0.0,0.0,0.0,0.0,0.0,0.0,0.0,0.0,0.0,0.0,0.0
S12_D10 hbo,0.0,0.0,0.0,0.0,0.0,0.0,0.0,0.0,0.0,0.0,0.0,0.0,0.0,0.0,0.0,0.0,0.0,0.0,0.0,0.0,0.0,0.0,0.0,0.0,0.0,0.0,0.0,0.0,0.0,0.0,0.0,0.0,0.0,0.0,0.0,0.0,0.0,0.0,0.0,0.0,0.0,0.0,0.0,0.0,0.0,0.0,0.0,0.0,0.0,0.0,0.0,0.0
S12_D12 hbo,0.0547945205479452,0.0410958904109589,0.0,0.04794520547945205,0.0,0.0547945205479452,0.0547945205479452,0.04794520547945205,0.0547945205479452,0.0,0.0,0.0,0.0,0.0,0.0547945205479452,0.0547945205479452,0.0,0.0273972602739726,0.0,0.0,0.0,0.0410958904109589,0.02054794520547945,0.0,0.0,0.0,0.0547945205479452,0.0,0.0,0.04794520547945205,0.0547945205479452,0.0410958904109589,0.0,0.0,0.0,0.0,0.0,0.04794520547945205,0.03424657534246575,0.0,0.0,0.0,0.0,0.0547945205479452,0.0,0.0,0.03424657534246575,0.0,0.0,0.0,0.0547945205479452,0.02054794520547945
S12_D14 hbo,0.053763440860215055,0.043010752688172046,0.0,0.053763440860215055,0.0,0.053763440860215055,0.053763440860215055,0.053763440860215055,0.053763440860215055,0.0,0.0,0.0,0.0,0.0,0.053763440860215055,0.053763440860215055,0.0,0.021505376344086023,0.0,0.0,0.0,0.043010752688172046,0.010752688172043012,0.0,0.0,0.0,0.053763440860215055,0.0,0.0,0.053763440860215055,0.053763440860215055,0.043010752688172046,0.0,0.0,0.0,0.0,0.0,0.053763440860215055,0.043010752688172046,0.0,0.0,0.0,0.0,0.053763440860215055,0.0,0.0,0.03225806451612903,0.0,0.0,0.0,0.053763440860215055,0.010752688172043012
S13_D6 hbo,0.0,0.0,0.0,0.0,0.0,0.0,0.0,0.0,0.0,0.0,0.0,0.0,0.0,0.0,0.0,0.0,0.0,0.0,0.0,0.0,0.0,0.0,0.0,0.0,0.0,0.0,0.0,0.0,0.0,0.0,0.0,0.0,0.0,0.0,0.0,0.0,0.0,0.0,0.0,0.0,0.0,0.0,0.0,0.0,0.0,0.0,0.0,0.0,0.0,0.0,0.0,0.0
S13_D11 hbo,0.0,0.0,0.0,0.0,0.0,0.0,0.0,0.0,0.0,0.0,0.0,0.0,0.0,0.0,0.0,0.0,0.0,0.0,0.0,0.0,0.0,0.0,0.0,0.0,0.0,0.0,0.0,0.0,0.0,0.0,0.0,0.0,0.0,0.0,0.0,0.0,0.0,0.0,0.0,0.0,0.0,0.0,0.0,0.0,0.0,0.0,0.0,0.0,0.0,0.0,0.0,0.0
S13_D13 hbo,0.0,0.0,0.0,0.0,0.0,0.0,0.0,0.0,0.0,0.0,0.0,0.0,0.0,0.0,0.0,0.0,0.0,0.0,0.0,0.0,0.0,0.0,0.0,0.0,0.0,0.0,0.0,0.0,0.0,0.0,0.0,0.0,0.0,0.0,0.0,0.0,0.0,0.0,0.0,0.0,0.0,0.0,0.0,0.0,0.0,0.0,0.0,0.0,0.0,0.0,0.0,0.0
S13_D15 hbo,0.0,0.0,0.0,0.0,0.0,0.0,0.0,0.0,0.0,0.0,0.0,0.0,0.0,0.0,0.0,0.0,0.0,0.0,0.0,0.0,0.0,0.0,0.0,0.0,0.0,0.0,0.0,0.0,0.0,0.0,0.0,0.0,0.0,0.0,0.0,0.0,0.0,0.0,0.0,0.0,0.0,0.0,0.0,0.0,0.0,0.0,0.0,0.0,0.0,0.0,0.0,0.0
S14_D12 hbo,0.06382978723404255,0.0425531914893617,0.0,0.03723404255319149,0.0,0.0425531914893617,0.05319148936170213,0.0425531914893617,0.06382978723404255,0.0,0.0,0.0,0.0,0.0,0.06382978723404255,0.05851063829787234,0.0,0.02127659574468085,0.0,0.0,0.0,0.031914893617021274,0.026595744680851064,0.0,0.0,0.0,0.06382978723404255,0.0,0.0,0.047872340425531915,0.06382978723404255,0.0425531914893617,0.0,0.0,0.0,0.0,0.0,0.0425531914893617,0.026595744680851064,0.0,0.0,0.0,0.0,0.06382978723404255,0.0,0.0,0.031914893617021274,0.0,0.0,0.0,0.05319148936170213,0.015957446808510637
S14_D13 hbo,0.0,0.0,0.0,0.0,0.0,0.0,0.0,0.0,0.0,0.0,0.0,0.0,0.0,0.0,0.0,0.0,0.0,0.0,0.0,0.0,0.0,0.0,0.0,0.0,0.0,0.0,0.0,0.0,0.0,0.0,0.0,0.0,0.0,0.0,0.0,0.0,0.0,0.0,0.0,0.0,0.0,0.0,0.0,0.0,0.0,0.0,0.0,0.0,0.0,0.0,0.0,0.0
S14_D14 hbo,0.0,0.0,0.0,0.0,0.0,0.0,0.0,0.0,0.0,0.0,0.0,0.0,0.0,0.0,0.0,0.0,0.0,0.0,0.0,0.0,0.0,0.0,0.0,0.0,0.0,0.0,0.0,0.0,0.0,0.0,0.0,0.0,0.0,0.0,0.0,0.0,0.0,0.0,0.0,0.0,0.0,0.0,0.0,0.0,0.0,0.0,0.0,0.0,0.0,0.0,0.0,0.0
S14_D16 hbo,0.04918032786885246,0.04918032786885246,0.0,0.04918032786885246,0.0,0.04918032786885246,0.04918032786885246,0.04918032786885246,0.04918032786885246,0.0,0.0,0.0,0.0,0.0,0.04918032786885246,0.04918032786885246,0.0,0.03278688524590164,0.0,0.0,0.0,0.04918032786885246,0.02459016393442623,0.0,0.0,0.0,0.04918032786885246,0.0,0.0,0.04918032786885246,0.04918032786885246,0.04918032786885246,0.0,0.0,0.0,0.0,0.0,0.04918032786885246,0.040983606557377046,0.0,0.0,0.0,0.0,0.04918032786885246,0.0,0.0,0.040983606557377046,0.0,0.0,0.0,0.04918032786885246,0.02459016393442623
S15_D13 hbo,0.0,0.0,0.0,0.0,0.0,0.0,0.0,0.0,0.0,0.0,0.0,0.0,0.0,0.0,0.0,0.0,0.0,0.0,0.0,0.0,0.0,0.0,0.0,0.0,0.0,0.0,0.0,0.0,0.0,0.0,0.0,0.0,0.0,0.0,0.0,0.0,0.0,0.0,0.0,0.0,0.0,0.0,0.0,0.0,0.0,0.0,0.0,0.0,0.0,0.0,0.0,0.0
S15_D15 hbo,0.0,0.0,0.0,0.0,0.0,0.0,0.0,0.0,0.0,0.0,0.0,0.0,0.0,0.0,0.0,0.0,0.0,0.0,0.0,0.0,0.0,0.0,0.0,0.0,0.0,0.0,0.0,0.0,0.0,0.0,0.0,0.0,0.0,0.0,0.0,0.0,0.0,0.0,0.0,0.0,0.0,0.0,0.0,0.0,0.0,0.0,0.0,0.0,0.0,0.0,0.0,0.0
S15_D16 hbo,0.0,0.0,0.0,0.0,0.0,0.0,0.0,0.0,0.0,0.0,0.0,0.0,0.0,0.0,0.0,0.0,0.0,0.0,0.0,0.0,0.0,0.0,0.0,0.0,0.0,0.0,0.0,0.0,0.0,0.0,0.0,0.0,0.0,0.0,0.0,0.0,0.0,0.0,0.0,0.0,0.0,0.0,0.0,0.0,0.0,0.0,0.0,0.0,0.0,0.0,0.0,0.0
S16_D14 hbo,0.0625,0.0375,0.0,0.04375,0.0,0.05,0.05,0.04375,0.0625,0.0,0.0,0.0,0.0,0.0,0.0625,0.05625,0.0,0.025,0.0,0.0,0.0,0.0375,0.01875,0.0,0.0,0.0,0.0625,0.0,0.0,0.04375,0.0625,0.0375,0.0,0.0,0.0,0.0,0.0,0.04375,0.03125,0.0,0.0,0.0,0.0,0.0625,0.0,0.0,0.03125,0.0,0.0,0.0,0.05625,0.01875
S16_D16 hbo,0.046875,0.046875,0.0,0.046875,0.0,0.046875,0.046875,0.046875,0.046875,0.0,0.0,0.0,0.0,0.0,0.046875,0.046875,0.0,0.046875,0.0,0.0,0.0,0.046875,0.03125,0.0,0.0,0.0,0.046875,0.0,0.0,0.046875,0.046875,0.046875,0.0,0.0,0.0,0.0,0.0,0.046875,0.046875,0.0,0.0,0.0,0.0,0.046875,0.0,0.0,0.046875,0.0,0.0,0.0,0.046875,0.03125
