,S1_D1 hbo,S1_D3 hbo,S2_D1 hbo,S2_D2 hbo,S2_D4 hbo,S3_D1 hbo,S3_D3 hbo,S3_D4 hbo,S3_D5 hbo,S4_D2 hbo,S4_D4 hbo,S4_D6 hbo,S4_D11 hbo,S5_D3 hbo,S5_D5 hbo,S5_D7 hbo,S6_D4 hbo,S6_D5 hbo,S6_D6 hbo,S6_D8 hbo,S7_D5 hbo,S7_D7 hbo,S7_D8 hbo,S8_D6 hbo,S8_D8 hbo,S8_D15 hbo,S9_D2 hbo,S9_D9 hbo,S9_D11 hbo,S10_D9 hbo,S10_D10 hbo,S10_D12 hbo,S11_D9 hbo,S11_D11 hbo,S11_D12 hbo,S11_D13 hbo,S12_D10 hbo,S12_D12 hbo,S12_D14 hbo,S13_D6 hbo,S13_D11 hbo,S13_D13 hbo,S13_D15 hbo,S14_D12 hbo,S14_D13 hbo,S14_D14 hbo,S14_D16 hbo,S15_D13 hbo,S15_D15 hbo,S15_D16 hbo,S16_D14 hbo,S16_D16 hbo
S1_D1 hbo,0.1289308176100629,0.0,0.0,0.07547169811320754,0.0,0.09119496855345911,0.0,0.0,0.0,0.0,0.0,0.0,0.0,0.0,0.0031446540880503146,0.04716981132075472,0.0,0.0,0.0,0.0,0.0,0.0,0.0,0.0,0.0,0.0,0.09119496855345911,0.0880503144654088,0.0,0.0,0.07547169811320754,0.0,0.0,0.0,0.015723270440251572,0.0,0.059748427672955975,0.050314465408805034,0.059748427672955975,0.0,0.0,0.0,0.0,0.09748427672955975,0.0,0.031446540880503145,0.0,0.0,0.03773584905660377,0.0,0.0,0.04716981132075472
S1_D3 hbo,0.0,0.032520325203252036,0.036585365853658534,0.0,0.024390243902439025,0.0,0.036585365853658534,0.016260162601626018,0.032520325203252036,0.012195121951219513,0.0,0.036585365853658534,0.0,0.036585365853658534,0.036585365853658534,0.028455284552845527,0.008130081300813009,0.0,0.0,0.0,0.024390243902439025,0.036585365853658534,0.012195121951219513,0.016260162601626018,0.028455284552845527,0.016260162601626018,0.0,0.0,0.032520325203252036,0.024390243902439025,0.0,0.036585365853658534,0.036585365853658534,0.036585365853658534,0.036585365853658534,0.036585365853658534,0.0,0.0,0.0,0.028455284552845527,0.028455284552845527,0.028455284552845527,0.024390243902439025,0.0,0.028455284552845527,0.016260162601626018,0.036585365853658534,0.024390243902439025,0.0,0.036585365853658534,0.036585365853658534,0.0
S2_D1 hbo,0.0,0.026578073089700997,0.05647840531561462,0.0,0.03986710963455149,0.0,0.036544850498338874,0.016611295681063124,0.026578073089700997,0.009966777408637873,0.0033222591362126247,0.03322259136212625,0.006644518272425249,0.04318936877076412,0.036544850498338874,0.023255813953488372,0.006644518272425249,0.0,0.0,0.0,0.019933554817275746,0.029900332225913623,0.009966777408637873,0.013289036544850499,0.023255813953488372,0.013289036544850499,0.0,0.0,0.026578073089700997,0.019933554817275746,0.0,0.04318936877076412,0.036544850498338874,0.04318936877076412,0.046511627906976744,0.03322259136212625,0.0,0.0,0.0,0.023255813953488372,0.023255813953488372,0.023255813953488372,0.019933554817275746,0.0,0.023255813953488372,0.013289036544850499,0.04318936877076412,0.019933554817275746,0.0,0.04318936877076412,0.04318936877076412,0.0
S2_D2 hbo,0.09056603773584905,0.0,0.0,0.13584905660377358,0.0,0.09811320754716982,0.0,0.0,0.0,0.0,0.0,0.0,0.0,0.0,0.0,0.0,0.0,0.0,0.0,0.0,0.0,0.0,0.0,0.0,0.0,0.0,0.13584905660377358,0.1320754716981132,0.0,0.0,0.03773584905660377,0.011320754716981131,0.0,0.0,0.0,0.0,0.06037735849056604,0.05660377358490566,0.05660377358490566,0.0,0.0,0.0,0.0,0.09811320754716982,0.0,0.04150943396226415,0.0,0.0,0.045283018867924525,0.0,0.0,0.0
S2_D4 hbo,0.0,0.026717557251908396,0.04580152671755725,0.0,0.04961832061068702,0.0,0.026717557251908396,0.019083969465648856,0.03435114503816794,0.011450381679389313,0.003816793893129771,0.03435114503816794,0.015267175572519083,0.030534351145038167,0.03435114503816794,0.03435114503816794,0.007633587786259542,0.007633587786259542,0.007633587786259542,0.0,0.030534351145038167,0.03435114503816794,0.019083969465648856,0.015267175572519083,0.026717557251908396,0.015267175572519083,0.0,0.0,0.026717557251908396,0.022900763358778626,0.007633587786259542,0.026717557251908396,0.026717557251908396,0.026717557251908396,0.030534351145038167,0.026717557251908396,0.0,0.007633587786259542,0.0,0.030534351145038167,0.026717557251908396,0.03435114503816794,0.022900763358778626,0.0,0.026717557251908396,0.015267175572519083,0.026717557251908396,0.022900763358778626,0.007633587786259542,0.026717557251908396,0.026717557251908396,0.0
S3_D1 hbo,0.10465116279069768,0.0,0.0,0.10077519379844961,0.0,0.12790697674418605,0.0,0.0,0.0,0.0,0.0,0.0,0.0,0.0,0.0,0.0,0.0,0.0,0.0,0.0,0.0,0.0,0.0,0.0,0.0,0.0,0.12015503875968993,0.11627906976744186,0.0,0.0,0.03875968992248062,0.0,0.0,0.0,0.0,0.0,0.07364341085271318,0.06201550387596899,0.08139534883720931,0.0,0.0,0.0,0.0,0.08527131782945736,0.0,0.04263565891472868,0.0,0.0,0.046511627906976744,0.0,0.0,0.0
S3_D3 hbo,0.0,0.02877697841726619,0.04316546762589928,0.0,0.02158273381294964,0.0,0.039568345323741004,0.014388489208633094,0.02877697841726619,0.01079136690647482,0.0,0.03597122302158273,0.0,0.04316546762589928,0.039568345323741004,0.025179856115107913,0.007194244604316547,0.0,0.0,0.0,0.02158273381294964,0.03237410071942446,0.01079136690647482,0.014388489208633094,0.025179856115107913,0.014388489208633094,0.0,0.0,0.02877697841726619,0.02158273381294964,0.0,0.04316546762589928,0.039568345323741004,0.04316546762589928,0.04316546762589928,0.03597122302158273,0.0,0.0,0.0,0.025179856115107913,0.025179856115107913,0.025179856115107913,0.02158273381294964,0.0,0.025179856115107913,0.014388489208633094,0.04316546762589928,0.02158273381294964,0.0,0.04316546762589928,0.04316546762589928,0.0
S3_D4 hbo,0.0,0.028901734104046242,0.04046242774566474,0.0,0.04046242774566474,0.0,0.028901734104046242,0.028901734104046242,0.028901734104046242,0.017341040462427744,0.005780346820809248,0.028901734104046242,0.011560693641618497,0.028901734104046242,0.028901734104046242,0.028901734104046242,0.011560693641618497,0.0,0.0,0.0,0.028901734104046242,0.028901734104046242,0.017341040462427744,0.023121387283236993,0.028901734104046242,0.023121387283236993,0.0,0.0,0.028901734104046242,0.028901734104046242,0.0,0.028901734104046242,0.028901734104046242,0.028901734104046242,0.03468208092485549,0.028901734104046242,0.0,0.0,0.0,0.028901734104046242,0.028901734104046242,0.028901734104046242,0.028901734104046242,0.0,0.028901734104046242,0.023121387283236993,0.028901734104046242,0.028901734104046242,0.0,0.028901734104046242,0.028901734104046242,0.0
S3_D5 hbo,0.0,0.025078369905956112,0.02821316614420063,0.0,0.0219435736677116,0.0,0.02821316614420063,0.012539184952978056,0.04075235109717868,0.009404388714733543,0.0,0.034482758620689655,0.018808777429467086,0.03134796238244514,0.0438871473354232,0.04075235109717868,0.006269592476489028,0.018808777429467086,0.018808777429467086,0.0,0.03134796238244514,0.034482758620689655,0.0219435736677116,0.012539184952978056,0.0219435736677116,0.012539184952978056,0.0,0.0,0.025078369905956112,0.018808777429467086,0.018808777429467086,0.02821316614420063,0.02821316614420063,0.02821316614420063,0.02821316614420063,0.02821316614420063,0.0,0.018808777429467086,0.0,0.025078369905956112,0.0219435736677116,0.04075235109717868,0.018808777429467086,0.0,0.0219435736677116,0.012539184952978056,0.02821316614420063,0.018808777429467086,0.018808777429467086,0.02821316614420063,0.02821316614420063,0.0
S4_D2 hbo,0.0,0.025157232704402517,0.031446540880503145,0.0,0.03773584905660377,0.0,0.025157232704402517,0.031446540880503145,0.031446540880503145,0.018867924528301886,0.006289308176100629,0.031446540880503145,0.012578616352201259,0.031446540880503145,0.031446540880503145,0.031446540880503145,0.012578616352201259,0.006289308176100629,0.006289308176100629,0.0,0.031446540880503145,0.031446540880503145,0.025157232704402517,0.025157232704402517,0.025157232704402517,0.025157232704402517,0.0,0.0,0.025157232704402517,0.025157232704402517,0.006289308176100629,0.025157232704402517,0.025157232704402517,0.025157232704402517,0.031446540880503145,0.025157232704402517,0.0,0.006289308176100629,0.0,0.031446540880503145,0.025157232704402517,0.031446540880503145,0.025157232704402517,0.0,0.025157232704402517,0.025157232704402517,0.025157232704402517,0.025157232704402517,0.006289308176100629,0.025157232704402517,0.025157232704402517,0.0
S4_D4 hbo,0.0,0.0,0.2222222222222222,0.0,0.2222222222222222,0.0,0.0,0.1111111111111111,0.0,0.0,0.1111111111111111,0.0,0.2222222222222222,0.0,0.0,0.0,0.0,0.0,0.0,0.0,0.0,0.0,0.0,0.0,0.0,0.0,0.0,0.0,0.0,0.0,0.0,0.0,0.0,0.0,0.1111111111111111,0.0,0.0,0.0,0.0,0.0,0.0,0.0,0.0,0.0,0.0,0.0,0.0,0.0,0.0,0.0,0.0,0.0
S4_D6 hbo,0.0,0.023054755043227664,0.0345821325648415,0.0,0.023054755043227664,0.0,0.03170028818443804,0.01440922190201729,0.03170028818443804,0.008645533141210375,0.002881844380403458,0.037463976945244955,0.011527377521613832,0.0345821325648415,0.04610951008645533,0.02881844380403458,0.005763688760806916,0.01440922190201729,0.008645533141210375,0.005763688760806916,0.03170028818443804,0.037463976945244955,0.023054755043227664,0.011527377521613832,0.020172910662824207,0.011527377521613832,0.0,0.002881844380403458,0.023054755043227664,0.01729106628242075,0.011527377521613832,0.03170028818443804,0.03170028818443804,0.03170028818443804,0.0345821325648415,0.02881844380403458,0.0,0.008645533141210375,0.0,0.023054755043227664,0.020172910662824207,0.02881844380403458,0.023054755043227664,0.0,0.025936599423631124,0.01729106628242075,0.037463976945244955,0.023054755043227664,0.008645533141210375,0.037463976945244955,0.03170028818443804,0.002881844380403458
S4_D11 hbo,0.0,0.0,0.033707865168539325,0.0,0.0449438202247191,0.0,0.0,0.011235955056179775,0.056179775280898875,0.0,0.011235955056179775,0.02247191011235955,0.0898876404494382,0.011235955056179775,0.056179775280898875,0.07865168539325842,0.0,0.07865168539325842,0.07865168539325842,0.0,0.0449438202247191,0.02247191011235955,0.0449438202247191,0.0,0.0,0.0,0.0,0.0,0.0,0.0,0.07865168539325842,0.0,0.0,0.0,0.011235955056179775,0.0,0.0,0.06741573033707865,0.0,0.011235955056179775,0.0,0.06741573033707865,0.0,0.0,0.0,0.0,0.0,0.0,0.07865168539325842,0.0,0.0,0.0
S5_D3 hbo,0.0,0.024242424242424242,0.03636363636363636,0.0,0.021212121212121213,0.0,0.03333333333333333,0.012121212121212121,0.030303030303030304,0.00909090909090909,0.0,0.03636363636363636,0.006060606060606061,0.048484848484848485,0.03939393939393939,0.02727272727272727,0.006060606060606061,0.006060606060606061,0.006060606060606061,0.0,0.024242424242424242,0.03333333333333333,0.015151515151515152,0.012121212121212121,0.021212121212121213,0.012121212121212121,0.0,0.0,0.024242424242424242,0.01818181818181818,0.006060606060606061,0.048484848484848485,0.03333333333333333,0.03939393939393939,0.048484848484848485,0.030303030303030304,0.0,0.006060606060606061,0.0,0.024242424242424242,0.021212121212121213,0.02727272727272727,0.01818181818181818,0.0,0.021212121212121213,0.012121212121212121,0.04242424242424243,0.01818181818181818,0.006060606060606061,0.045454545454545456,0.048484848484848485,0.0
S5_D5 hbo,0.004228329809725159,0.016913319238900635,0.02536997885835095,0.0,0.014799154334038054,0.0,0.023255813953488372,0.008456659619450317,0.02748414376321353,0.006342494714587738,0.0,0.02748414376321353,0.012684989429175475,0.02748414376321353,0.05708245243128964,0.03171247357293869,0.004228329809725159,0.02959830866807611,0.012684989429175475,0.010570824524312896,0.04439746300211417,0.035940803382663845,0.03382663847780127,0.008456659619450317,0.014799154334038054,0.008456659619450317,0.0,0.0021141649048625794,0.016913319238900635,0.012684989429175475,0.019027484143763214,0.02536997885835095,0.023255813953488372,0.02536997885835095,0.02959830866807611,0.021141649048625793,0.0,0.012684989429175475,0.0,0.016913319238900635,0.014799154334038054,0.02748414376321353,0.03171247357293869,0.004228329809725159,0.035940803382663845,0.03171247357293869,0.04439746300211417,0.035940803382663845,0.012684989429175475,0.03805496828752643,0.02536997885835095,0.006342494714587738
S5_D7 hbo,0.030634573304157548,0.0175054704595186,0.0175054704595186,0.0,0.015317286652078774,0.0,0.0175054704595186,0.0087527352297593,0.028446389496717725,0.006564551422319475,0.0,0.024070021881838075,0.01312910284463895,0.019693654266958426,0.03282275711159737,0.09409190371991247,0.00437636761487965,0.0262582056892779,0.019693654266958426,0.002188183807439825,0.024070021881838075,0.024070021881838075,0.0175054704595186,0.0087527352297593,0.015317286652078774,0.0087527352297593,0.0,0.002188183807439825,0.0175054704595186,0.028446389496717725,0.0525164113785558,0.03282275711159737,0.0175054704595186,0.0175054704595186,0.028446389496717725,0.0175054704595186,0.0,0.01312910284463895,0.0,0.0175054704595186,0.015317286652078774,0.028446389496717725,0.015317286652078774,0.03938730853391685,0.0175054704595186,0.0350109409190372,0.019693654266958426,0.015317286652078774,0.0175054704595186,0.019693654266958426,0.0175054704595186,0.037199124726477024
S6_D4 hbo,0.0,0.024793388429752067,0.024793388429752067,0.0,0.03305785123966942,0.0,0.024793388429752067,0.024793388429752067,0.03305785123966942,0.024793388429752067,0.0,0.03305785123966942,0.008264462809917356,0.03305785123966942,0.03305785123966942,0.03305785123966942,0.01652892561983471,0.008264462809917356,0.008264462809917356,0.0,0.03305785123966942,0.03305785123966942,0.03305785123966942,0.024793388429752067,0.024793388429752067,0.024793388429752067,0.0,0.0,0.024793388429752067,0.024793388429752067,0.008264462809917356,0.024793388429752067,0.024793388429752067,0.024793388429752067,0.024793388429752067,0.024793388429752067,0.0,0.008264462809917356,0.0,0.03305785123966942,0.024793388429752067,0.03305785123966942,0.024793388429752067,0.0,0.024793388429752067,0.024793388429752067,0.024793388429752067,0.024793388429752067,0.008264462809917356,0.024793388429752067,0.024793388429752067,0.0
S6_D5 hbo,0.0,0.004405286343612335,0.004405286343612335,0.0,0.00881057268722467,0.0,0.004405286343612335,0.004405286343612335,0.02643171806167401,0.004405286343612335,0.0,0.01762114537444934,0.02643171806167401,0.00881057268722467,0.06607929515418502,0.048458149779735685,0.004405286343612335,0.0881057268722467,0.039647577092511016,0.022026431718061675,0.06167400881057269,0.039647577092511016,0.06167400881057269,0.004405286343612335,0.004405286343612335,0.004405286343612335,0.0,0.004405286343612335,0.004405286343612335,0.004405286343612335,0.04405286343612335,0.004405286343612335,0.004405286343612335,0.004405286343612335,0.004405286343612335,0.004405286343612335,0.0,0.02643171806167401,0.0,0.00881057268722467,0.004405286343612335,0.030837004405286344,0.04405286343612335,0.0,0.04405286343612335,0.04405286343612335,0.04405286343612335,0.04405286343612335,0.03524229074889868,0.030837004405286344,0.004405286343612335,0.004405286343612335
S6_D6 hbo,0.0,0.0,0.0,0.0,0.009523809523809525,0.0,0.0,0.0,0.047619047619047616,0.0,0.0,0.02857142857142857,0.05714285714285714,0.009523809523809525,0.05714285714285714,0.09523809523809523,0.0,0.10476190476190476,0.08571428571428572,0.009523809523809525,0.047619047619047616,0.02857142857142857,0.047619047619047616,0.0,0.0,0.0,0.0,0.009523809523809525,0.0,0.0,0.09523809523809523,0.0,0.0,0.0,0.0,0.0,0.0,0.05714285714285714,0.0,0.009523809523809525,0.0,0.05714285714285714,0.009523809523809525,0.0,0.009523809523809525,0.009523809523809525,0.009523809523809525,0.009523809523809525,0.0761904761904762,0.009523809523809525,0.0,0.009523809523809525
S6_D8 hbo,0.0,0.007874015748031496,0.007874015748031496,0.0,0.015748031496062992,0.0,0.007874015748031496,0.007874015748031496,0.015748031496062992,0.007874015748031496,0.0,0.023622047244094488,0.007874015748031496,0.015748031496062992,0.06299212598425197,0.015748031496062992,0.007874015748031496,0.05511811023622047,0.007874015748031496,0.03937007874015748,0.06299212598425197,0.06299212598425197,0.06299212598425197,0.007874015748031496,0.007874015748031496,0.007874015748031496,0.0,0.007874015748031496,0.007874015748031496,0.007874015748031496,0.015748031496062992,0.007874015748031496,0.007874015748031496,0.007874015748031496,0.007874015748031496,0.007874015748031496,0.0,0.007874015748031496,0.0,0.015748031496062992,0.007874015748031496,0.015748031496062992,0.05511811023622047,0.0,0.05511811023622047,0.05511811023622047,0.05511811023622047,0.05511811023622047,0.007874015748031496,0.05511811023622047,0.007874015748031496,0.007874015748031496
S7_D5 hbo,0.0,0.017902813299232736,0.017902813299232736,0.0,0.017902813299232736,0.0,0.017902813299232736,0.010230179028132993,0.030690537084398978,0.0076726342710997444,0.0,0.02557544757033248,0.01278772378516624,0.020460358056265986,0.056265984654731455,0.030690537084398978,0.005115089514066497,0.03324808184143223,0.01278772378516624,0.01278772378516624,0.05370843989769821,0.03836317135549872,0.04092071611253197,0.010230179028132993,0.017902813299232736,0.010230179028132993,0.0,0.0025575447570332483,0.017902813299232736,0.015345268542199489,0.015345268542199489,0.017902813299232736,0.017902813299232736,0.017902813299232736,0.017902813299232736,0.017902813299232736,0.0,0.01278772378516624,0.0,0.020460358056265986,0.017902813299232736,0.030690537084398978,0.03836317135549872,0.0,0.043478260869565216,0.04092071611253197,0.04092071611253197,0.04603580562659847,0.01278772378516624,0.03324808184143223,0.017902813299232736,0.0025575447570332483
S7_D7 hbo,0.0,0.02072538860103627,0.025906735751295335,0.0,0.018134715025906734,0.0,0.025906735751295335,0.010362694300518135,0.02849740932642487,0.007772020725388601,0.0,0.03367875647668394,0.007772020725388601,0.02849740932642487,0.05181347150259067,0.025906735751295335,0.0051813471502590676,0.025906735751295335,0.007772020725388601,0.012953367875647668,0.04145077720207254,0.04404145077720207,0.03367875647668394,0.010362694300518135,0.018134715025906734,0.010362694300518135,0.0,0.0025906735751295338,0.02072538860103627,0.015544041450777202,0.010362694300518135,0.025906735751295335,0.025906735751295335,0.025906735751295335,0.025906735751295335,0.025906735751295335,0.0,0.007772020725388601,0.0,0.02072538860103627,0.018134715025906734,0.025906735751295335,0.03367875647668394,0.0,0.03626943005181347,0.02849740932642487,0.04404145077720207,0.03367875647668394,0.007772020725388601,0.04145077720207254,0.025906735751295335,0.0025906735751295338
S7_D8 hbo,0.0,0.013029315960912053,0.013029315960912053,0.0,0.016286644951140065,0.0,0.013029315960912053,0.013029315960912053,0.029315960912052116,0.009771986970684038,0.0,0.02280130293159609,0.016286644951140065,0.016286644951140065,0.06188925081433225,0.029315960912052116,0.006514657980456026,0.04234527687296417,0.016286644951140065,0.016286644951140065,0.05863192182410423,0.03908794788273615,0.05211726384364821,0.013029315960912053,0.013029315960912053,0.013029315960912053,0.0,0.003257328990228013,0.013029315960912053,0.013029315960912053,0.019543973941368076,0.013029315960912053,0.013029315960912053,0.013029315960912053,0.013029315960912053,0.013029315960912053,0.0,0.016286644951140065,0.0,0.016286644951140065,0.013029315960912053,0.029315960912052116,0.04234527687296417,0.0,0.04560260586319218,0.04560260586319218,0.04234527687296417,0.04560260586319218,0.016286644951140065,0.03257328990228013,0.013029315960912053,0.003257328990228013
S8_D6 hbo,0.0,0.03048780487804878,0.03048780487804878,0.0,0.03048780487804878,0.0,0.03048780487804878,0.024390243902439025,0.03048780487804878,0.018292682926829267,0.0,0.03048780487804878,0.0,0.03048780487804878,0.03048780487804878,0.03048780487804878,0.012195121951219513,0.0,0.0,0.0,0.03048780487804878,0.03048780487804878,0.018292682926829267,0.024390243902439025,0.03048780487804878,0.024390243902439025,0.0,0.0,0.03048780487804878,0.03048780487804878,0.0,0.03048780487804878,0.03048780487804878,0.03048780487804878,0.03048780487804878,0.03048780487804878,0.0,0.0,0.0,0.03048780487804878,0.03048780487804878,0.03048780487804878,0.03048780487804878,0.0,0.03048780487804878,0.024390243902439025,0.03048780487804878,0.03048780487804878,0.0,0.03048780487804878,0.03048780487804878,0.0
S8_D8 hbo,0.0,0.03225806451612903,0.03225806451612903,0.0,0.024193548387096774,0.0,0.03225806451612903,0.016129032258064516,0.03225806451612903,0.012096774193548387,0.0,0.036290322580645164,0.0,0.03225806451612903,0.036290322580645164,0.028225806451612902,0.008064516129032258,0.004032258064516129,0.0,0.004032258064516129,0.028225806451612902,0.036290322580645164,0.016129032258064516,0.016129032258064516,0.028225806451612902,0.016129032258064516,0.0,0.004032258064516129,0.03225806451612903,0.024193548387096774,0.004032258064516129,0.03225806451612903,0.03225806451612903,0.03225806451612903,0.03225806451612903,0.03225806451612903,0.0,0.0,0.0,0.028225806451612902,0.028225806451612902,0.028225806451612902,0.028225806451612902,0.0,0.03225806451612903,0.020161290322580645,0.036290322580645164,0.028225806451612902,0.0,0.036290322580645164,0.03225806451612903,0.004032258064516129
S8_D15 hbo,0.0,0.03048780487804878,0.03048780487804878,0.0,0.03048780487804878,0.0,0.03048780487804878,0.024390243902439025,0.03048780487804878,0.018292682926829267,0.0,0.03048780487804878,0.0,0.03048780487804878,0.03048780487804878,0.03048780487804878,0.012195121951219513,0.0,0.0,0.0,0.03048780487804878,0.03048780487804878,0.018292682926829267,0.024390243902439025,0.03048780487804878,0.024390243902439025,0.0,0.0,0.03048780487804878,0.03048780487804878,0.0,0.03048780487804878,0.03048780487804878,0.03048780487804878,0.03048780487804878,0.03048780487804878,0.0,0.0,0.0,0.03048780487804878,0.03048780487804878,0.03048780487804878,0.03048780487804878,0.0,0.03048780487804878,0.024390243902439025,0.03048780487804878,0.03048780487804878,0.0,0.03048780487804878,0.03048780487804878,0.0
S9_D2 hbo,0.09310344827586207,0.0,0.0,0.12413793103448276,0.0,0.10689655172413794,0.0,0.0,0.0,0.0,0.0,0.0,0.0,0.0,0.0,0.0,0.0,0.0,0.0,0.0,0.0,0.0,0.0,0.0,0.0,0.0,0.13793103448275862,0.1310344827586207,0.0,0.0,0.034482758620689655,0.010344827586206896,0.0,0.0,0.0,0.0,0.06896551724137931,0.05517241379310345,0.06896551724137931,0.0,0.0,0.0,0.0,0.0896551724137931,0.0,0.03793103448275862,0.0,0.0,0.041379310344827586,0.0,0.0,0.0
S9_D9 hbo,0.08571428571428572,0.0,0.0,0.1111111111111111,0.0,0.09523809523809523,0.0,0.0,0.0,0.0,0.0,0.0031746031746031746,0.0,0.0,0.006349206349206349,0.0,0.0,0.006349206349206349,0.0,0.006349206349206349,0.006349206349206349,0.006349206349206349,0.006349206349206349,0.0,0.0,0.0,0.12698412698412698,0.12380952380952381,0.0,0.0,0.03492063492063492,0.009523809523809525,0.0,0.0,0.0,0.0,0.06349206349206349,0.050793650793650794,0.06031746031746032,0.0,0.0,0.0,0.006349206349206349,0.08253968253968254,0.006349206349206349,0.04126984126984127,0.006349206349206349,0.006349206349206349,0.0380952380952381,0.006349206349206349,0.0,0.0031746031746031746
S9_D11 hbo,0.0,0.032520325203252036,0.036585365853658534,0.0,0.024390243902439025,0.0,0.036585365853658534,0.016260162601626018,0.032520325203252036,0.012195121951219513,0.0,0.036585365853658534,0.0,0.036585365853658534,0.036585365853658534,0.028455284552845527,0.008130081300813009,0.0,0.0,0.0,0.024390243902439025,0.036585365853658534,0.012195121951219513,0.016260162601626018,0.028455284552845527,0.016260162601626018,0.0,0.0,0.032520325203252036,0.024390243902439025,0.0,0.036585365853658534,0.036585365853658534,0.036585365853658534,0.036585365853658534,0.036585365853658534,0.0,0.0,0.0,0.028455284552845527,0.028455284552845527,0.028455284552845527,0.024390243902439025,0.0,0.028455284552845527,0.016260162601626018,0.036585365853658534,0.024390243902439025,0.0,0.036585365853658534,0.036585365853658534,0.0
S10_D9 hbo,0.0,0.02766798418972332,0.02766798418972332,0.0,0.023715415019762844,0.0,0.02766798418972332,0.015810276679841896,0.02766798418972332,0.011857707509881422,0.0,0.02766798418972332,0.0,0.02766798418972332,0.02766798418972332,0.05928853754940711,0.007905138339920948,0.0,0.0,0.0,0.023715415019762844,0.02766798418972332,0.011857707509881422,0.015810276679841896,0.02766798418972332,0.015810276679841896,0.0,0.0,0.02766798418972332,0.05138339920948617,0.0,0.05533596837944664,0.02766798418972332,0.02766798418972332,0.02766798418972332,0.02766798418972332,0.0,0.0,0.0,0.02766798418972332,0.02766798418972332,0.02766798418972332,0.023715415019762844,0.03162055335968379,0.02766798418972332,0.04743083003952569,0.02766798418972332,0.023715415019762844,0.0,0.02766798418972332,0.02766798418972332,0.0
S10_D10 hbo,0.07739938080495357,0.0,0.0,0.034055727554179564,0.0030959752321981426,0.034055727554179564,0.0,0.0,0.015479876160990712,0.0,0.0,0.009287925696594427,0.018575851393188854,0.0030959752321981426,0.02476780185758514,0.07739938080495357,0.0,0.03715170278637771,0.02786377708978328,0.006191950464396285,0.018575851393188854,0.01238390092879257,0.018575851393188854,0.0,0.0,0.0,0.034055727554179564,0.03715170278637771,0.0,0.0,0.12693498452012383,0.0,0.0,0.0,0.015479876160990712,0.0,0.034055727554179564,0.05263157894736842,0.034055727554179564,0.0030959752321981426,0.0,0.018575851393188854,0.006191950464396285,0.06191950464396285,0.006191950464396285,0.006191950464396285,0.006191950464396285,0.006191950464396285,0.07739938080495357,0.006191950464396285,0.0,0.04953560371517028
S10_D12 hbo,0.0,0.02203856749311295,0.03305785123966942,0.011019283746556474,0.01652892561983471,0.0,0.030303030303030304,0.011019283746556474,0.02203856749311295,0.008264462809917356,0.0,0.027548209366391185,0.0,0.04132231404958678,0.030303030303030304,0.04132231404958678,0.005509641873278237,0.0,0.0,0.0,0.01652892561983471,0.024793388429752067,0.008264462809917356,0.011019283746556474,0.01928374655647383,0.011019283746556474,0.011019283746556474,0.011019283746556474,0.02203856749311295,0.03581267217630854,0.0,0.07713498622589532,0.030303030303030304,0.03581267217630854,0.049586776859504134,0.027548209366391185,0.0027548209366391185,0.0,0.0,0.01928374655647383,0.01928374655647383,0.01928374655647383,0.02203856749311295,0.03305785123966942,0.01928374655647383,0.03305785123966942,0.03856749311294766,0.01652892561983471,0.0,0.04132231404958678,0.0440771349862259,0.0
S11_D9 hbo,0.0,0.02877697841726619,0.04316546762589928,0.0,0.02158273381294964,0.0,0.039568345323741004,0.014388489208633094,0.02877697841726619,0.01079136690647482,0.0,0.03597122302158273,0.0,0.04316546762589928,0.039568345323741004,0.025179856115107913,0.007194244604316547,0.0,0.0,0.0,0.02158273381294964,0.03237410071942446,0.01079136690647482,0.014388489208633094,0.025179856115107913,0.014388489208633094,0.0,0.0,0.02877697841726619,0.02158273381294964,0.0,0.04316546762589928,0.039568345323741004,0.04316546762589928,0.04316546762589928,0.03597122302158273,0.0,0.0,0.0,0.025179856115107913,0.025179856115107913,0.025179856115107913,0.02158273381294964,0.0,0.025179856115107913,0.014388489208633094,0.04316546762589928,0.02158273381294964,0.0,0.04316546762589928,0.04316546762589928,0.0
S11_D11 hbo,0.0,0.027491408934707903,0.041237113402061855,0.0,0.020618556701030927,0.0,0.037800687285223365,0.013745704467353952,0.027491408934707903,0.010309278350515464,0.0,0.03436426116838488,0.0,0.048109965635738834,0.037800687285223365,0.024054982817869417,0.006872852233676976,0.0,0.0,0.0,0.020618556701030927,0.030927835051546393,0.010309278350515464,0.013745704467353952,0.024054982817869417,0.013745704467353952,0.0,0.0,0.027491408934707903,0.020618556701030927,0.0,0.048109965635738834,0.037800687285223365,0.044673539518900345,0.048109965635738834,0.03436426116838488,0.0,0.0,0.0,0.024054982817869417,0.024054982817869417,0.024054982817869417,0.020618556701030927,0.0,0.024054982817869417,0.013745704467353952,0.048109965635738834,0.020618556701030927,0.0,0.048109965635738834,0.048109965635738834,0.0
S11_D12 hbo,0.01694915254237288,0.022598870056497175,0.03954802259887006,0.0,0.022598870056497175,0.0,0.031073446327683617,0.014124293785310734,0.022598870056497175,0.00847457627118644,0.002824858757062147,0.02824858757062147,0.005649717514124294,0.0423728813559322,0.03389830508474576,0.03672316384180791,0.005649717514124294,0.0,0.0,0.0,0.01694915254237288,0.025423728813559324,0.00847457627118644,0.011299435028248588,0.01977401129943503,0.011299435028248588,0.0,0.0,0.022598870056497175,0.01694915254237288,0.01694915254237288,0.05084745762711865,0.031073446327683617,0.03672316384180791,0.07344632768361582,0.02824858757062147,0.0,0.0,0.0,0.01977401129943503,0.01977401129943503,0.01977401129943503,0.02824858757062147,0.01694915254237288,0.01977401129943503,0.011299435028248588,0.03954802259887006,0.01694915254237288,0.0,0.0423728813559322,0.04519774011299435,0.01694915254237288
S11_D13 hbo,0.0,0.02962962962962963,0.040740740740740744,0.0,0.022222222222222223,0.0,0.040740740740740744,0.014814814814814815,0.02962962962962963,0.011111111111111112,0.0,0.037037037037037035,0.0,0.040740740740740744,0.040740740740740744,0.025925925925925925,0.007407407407407408,0.0,0.0,0.0,0.022222222222222223,0.03333333333333333,0.011111111111111112,0.014814814814814815,0.025925925925925925,0.014814814814814815,0.0,0.0,0.02962962962962963,0.022222222222222223,0.0,0.040740740740740744,0.040740740740740744,0.040740740740740744,0.040740740740740744,0.037037037037037035,0.0,0.0,0.0,0.025925925925925925,0.025925925925925925,0.025925925925925925,0.022222222222222223,0.0,0.025925925925925925,0.014814814814814815,0.040740740740740744,0.022222222222222223,0.0,0.040740740740740744,0.040740740740740744,0.0
S12_D10 hbo,0.09326424870466321,0.0,0.0,0.08290155440414508,0.0,0.10362694300518134,0.0,0.0,0.0,0.0,0.0,0.0,0.0,0.0,0.0,0.0,0.0,0.0,0.0,0.0,0.0,0.0,0.0,0.0,0.0,0.0,0.10880829015544041,0.10362694300518134,0.0,0.0,0.05181347150259067,0.010362694300518135,0.0,0.0,0.0,0.0,0.12953367875647667,0.08290155440414508,0.10362694300518134,0.0,0.0,0.0,0.0,0.07772020725388601,0.0,0.0,0.0,0.0,0.05181347150259067,0.0,0.0,0.0
S12_D12 hbo,0.06227106227106227,0.0,0.0,0.05128205128205128,0.003663003663003663,0.06227106227106227,0.0,0.0,0.018315018315018316,0.0,0.0,0.007326007326007326,0.02197802197802198,0.003663003663003663,0.018315018315018316,0.02564102564102564,0.0,0.02564102564102564,0.02564102564102564,0.0,0.014652014652014652,0.007326007326007326,0.014652014652014652,0.0,0.0,0.0,0.06227106227106227,0.06227106227106227,0.0,0.0,0.06227106227106227,0.0,0.0,0.0,0.0,0.0,0.06227106227106227,0.13553113553113552,0.07692307692307693,0.003663003663003663,0.0,0.02197802197802198,0.0,0.047619047619047616,0.0,0.0,0.0,0.0,0.10256410256410256,0.0,0.0,0.0
S12_D14 hbo,0.09278350515463918,0.0,0.0,0.07216494845360824,0.0,0.1134020618556701,0.0,0.0,0.0,0.0,0.0,0.0,0.0,0.0,0.0,0.0,0.0,0.0,0.0,0.0,0.0,0.0,0.0,0.0,0.0,0.0,0.0979381443298969,0.09278350515463918,0.0,0.0,0.05154639175257732,0.0,0.0,0.0,0.0,0.0,0.0979381443298969,0.10824742268041238,0.12886597938144329,0.0,0.0,0.0,0.0,0.06701030927835051,0.0,0.0,0.0,0.0,0.07731958762886598,0.0,0.0,0.0
S13_D6 hbo,0.0,0.030418250950570342,0.030418250950570342,0.0,0.026615969581749048,0.0,0.030418250950570342,0.015209125475285171,0.03802281368821293,0.011406844106463879,0.0,0.03802281368821293,0.0076045627376425855,0.034220532319391636,0.03802281368821293,0.034220532319391636,0.0076045627376425855,0.0076045627376425855,0.0076045627376425855,0.0,0.030418250950570342,0.03802281368821293,0.019011406844106463,0.015209125475285171,0.026615969581749048,0.015209125475285171,0.0,0.0,0.030418250950570342,0.022813688212927757,0.0076045627376425855,0.030418250950570342,0.030418250950570342,0.030418250950570342,0.030418250950570342,0.030418250950570342,0.0,0.0076045627376425855,0.0,0.030418250950570342,0.026615969581749048,0.034220532319391636,0.022813688212927757,0.0,0.026615969581749048,0.015209125475285171,0.030418250950570342,0.022813688212927757,0.0076045627376425855,0.030418250950570342,0.030418250950570342,0.0
S13_D11 hbo,0.0,0.034482758620689655,0.034482758620689655,0.0,0.02586206896551724,0.0,0.034482758620689655,0.017241379310344827,0.034482758620689655,0.01293103448275862,0.0,0.034482758620689655,0.0,0.034482758620689655,0.034482758620689655,0.03017241379310345,0.008620689655172414,0.0,0.0,0.0,0.02586206896551724,0.034482758620689655,0.01293103448275862,0.017241379310344827,0.03017241379310345,0.017241379310344827,0.0,0.0,0.034482758620689655,0.02586206896551724,0.0,0.034482758620689655,0.034482758620689655,0.034482758620689655,0.034482758620689655,0.034482758620689655,0.0,0.0,0.0,0.03017241379310345,0.03017241379310345,0.03017241379310345,0.02586206896551724,0.0,0.03017241379310345,0.017241379310344827,0.034482758620689655,0.02586206896551724,0.0,0.034482758620689655,0.034482758620689655,0.0
S13_D13 hbo,0.0,0.025806451612903226,0.025806451612903226,0.0,0.02258064516129032,0.0,0.025806451612903226,0.012903225806451613,0.041935483870967745,0.00967741935483871,0.0,0.03225806451612903,0.01935483870967742,0.02903225806451613,0.041935483870967745,0.04516129032258064,0.0064516129032258064,0.02258064516129032,0.02258064516129032,0.0,0.03225806451612903,0.03225806451612903,0.02258064516129032,0.012903225806451613,0.02258064516129032,0.012903225806451613,0.0,0.0,0.025806451612903226,0.01935483870967742,0.02258064516129032,0.025806451612903226,0.025806451612903226,0.025806451612903226,0.025806451612903226,0.025806451612903226,0.0,0.01935483870967742,0.0,0.025806451612903226,0.02258064516129032,0.041935483870967745,0.01935483870967742,0.0,0.02258064516129032,0.012903225806451613,0.025806451612903226,0.01935483870967742,0.02258064516129032,0.025806451612903226,0.025806451612903226,0.0
S13_D15 hbo,0.0,0.021212121212121213,0.021212121212121213,0.0,0.01818181818181818,0.0,0.021212121212121213,0.012121212121212121,0.021212121212121213,0.00909090909090909,0.0,0.024242424242424242,0.0,0.021212121212121213,0.051515151515151514,0.021212121212121213,0.006060606060606061,0.024242424242424242,0.0,0.015151515151515152,0.048484848484848485,0.03939393939393939,0.03636363636363636,0.012121212121212121,0.021212121212121213,0.012121212121212121,0.0,0.0030303030303030303,0.021212121212121213,0.01818181818181818,0.0030303030303030303,0.024242424242424242,0.021212121212121213,0.021212121212121213,0.03333333333333333,0.021212121212121213,0.0,0.0,0.0,0.021212121212121213,0.021212121212121213,0.021212121212121213,0.05757575757575758,0.0,0.051515151515151514,0.04242424242424243,0.048484848484848485,0.048484848484848485,0.0,0.03939393939393939,0.021212121212121213,0.0030303030303030303
S14_D12 hbo,0.09821428571428571,0.0,0.0,0.08630952380952381,0.0,0.07142857142857142,0.0,0.0,0.0,0.0,0.0,0.0,0.0,0.0,0.002976190476190476,0.05952380952380952,0.0,0.0,0.0,0.0,0.0,0.0,0.0,0.0,0.0,0.0,0.08630952380952381,0.08630952380952381,0.0,0.020833333333333332,0.05952380952380952,0.02976190476190476,0.0,0.0,0.01488095238095238,0.0,0.044642857142857144,0.041666666666666664,0.041666666666666664,0.0,0.0,0.0,0.0,0.13095238095238096,0.0,0.05952380952380952,0.0,0.0,0.03571428571428571,0.0,0.0,0.02976190476190476
S14_D13 hbo,0.0,0.02346041055718475,0.02346041055718475,0.0,0.017595307917888565,0.0,0.02346041055718475,0.011730205278592375,0.02346041055718475,0.008797653958944282,0.0,0.026392961876832845,0.0,0.02346041055718475,0.05278592375366569,0.020527859237536656,0.005865102639296188,0.02346041055718475,0.0,0.01466275659824047,0.04985337243401759,0.04105571847507331,0.03519061583577713,0.011730205278592375,0.020527859237536656,0.011730205278592375,0.0,0.002932551319648094,0.02346041055718475,0.017595307917888565,0.002932551319648094,0.02346041055718475,0.02346041055718475,0.02346041055718475,0.02346041055718475,0.02346041055718475,0.0,0.0,0.0,0.020527859237536656,0.020527859237536656,0.020527859237536656,0.04398826979472141,0.0,0.04985337243401759,0.04398826979472141,0.04985337243401759,0.04985337243401759,0.0,0.04105571847507331,0.02346041055718475,0.002932551319648094
S14_D14 hbo,0.022388059701492536,0.012437810945273632,0.012437810945273632,0.029850746268656716,0.012437810945273632,0.02736318407960199,0.012437810945273632,0.009950248756218905,0.012437810945273632,0.007462686567164179,0.0,0.014925373134328358,0.0,0.012437810945273632,0.03731343283582089,0.03980099502487562,0.004975124378109453,0.01990049751243781,0.0,0.012437810945273632,0.03980099502487562,0.02736318407960199,0.029850746268656716,0.009950248756218905,0.012437810945273632,0.009950248756218905,0.029850746268656716,0.03233830845771144,0.012437810945273632,0.029850746268656716,0.0024875621890547263,0.029850746268656716,0.012437810945273632,0.012437810945273632,0.012437810945273632,0.012437810945273632,0.0,0.0,0.0,0.012437810945273632,0.012437810945273632,0.012437810945273632,0.03482587064676617,0.04477611940298507,0.03731343283582089,0.09950248756218906,0.03482587064676617,0.0472636815920398,0.004975124378109453,0.02736318407960199,0.012437810945273632,0.0024875621890547263
S14_D16 hbo,0.0,0.01990049751243781,0.029850746268656716,0.0,0.014925373134328358,0.0,0.02736318407960199,0.009950248756218905,0.01990049751243781,0.007462686567164179,0.0,0.02736318407960199,0.0,0.03731343283582089,0.05223880597014925,0.017412935323383085,0.004975124378109453,0.01990049751243781,0.0,0.012437810945273632,0.03980099502487562,0.03731343283582089,0.029850746268656716,0.009950248756218905,0.017412935323383085,0.009950248756218905,0.0,0.0024875621890547263,0.01990049751243781,0.014925373134328358,0.0024875621890547263,0.03731343283582089,0.02736318407960199,0.03233830845771144,0.03731343283582089,0.024875621890547265,0.0,0.0,0.0,0.017412935323383085,0.017412935323383085,0.017412935323383085,0.03731343283582089,0.0,0.04228855721393035,0.03482587064676617,0.05721393034825871,0.03980099502487562,0.0,0.05223880597014925,0.03731343283582089,0.0024875621890547263
S15_D13 hbo,0.0,0.02127659574468085,0.02127659574468085,0.0,0.0182370820668693,0.0,0.02127659574468085,0.0121580547112462,0.02127659574468085,0.00911854103343465,0.0,0.0243161094224924,0.0,0.02127659574468085,0.05167173252279635,0.02127659574468085,0.0060790273556231,0.0243161094224924,0.0,0.015197568389057751,0.05167173252279635,0.03951367781155015,0.0364741641337386,0.0121580547112462,0.02127659574468085,0.0121580547112462,0.0,0.00303951367781155,0.02127659574468085,0.0182370820668693,0.00303951367781155,0.02127659574468085,0.02127659574468085,0.02127659574468085,0.02127659574468085,0.02127659574468085,0.0,0.0,0.0,0.02127659574468085,0.02127659574468085,0.02127659574468085,0.04559270516717325,0.0,0.05167173252279635,0.05167173252279635,0.0486322188449848,0.060790273556231005,0.0,0.03951367781155015,0.02127659574468085,0.00303951367781155
S15_D15 hbo,0.05166051660516605,0.0,0.0,0.05166051660516605,0.0036900369003690036,0.05166051660516605,0.0,0.0,0.01845018450184502,0.0,0.0,0.007380073800738007,0.02214022140221402,0.0036900369003690036,0.01845018450184502,0.033210332103321034,0.0,0.033210332103321034,0.033210332103321034,0.0,0.014760147601476014,0.007380073800738007,0.014760147601476014,0.0,0.0,0.0,0.05166051660516605,0.05166051660516605,0.0,0.0,0.0959409594095941,0.0,0.0,0.0,0.0,0.0,0.04059040590405904,0.1033210332103321,0.055350553505535055,0.0036900369003690036,0.0,0.02214022140221402,0.0,0.05166051660516605,0.0,0.01107011070110701,0.0,0.0,0.14760147601476015,0.0,0.0,0.0
S15_D16 hbo,0.0,0.020887728459530026,0.031331592689295036,0.0,0.015665796344647518,0.0,0.028720626631853787,0.010443864229765013,0.020887728459530026,0.007832898172323759,0.0,0.028720626631853787,0.0,0.0391644908616188,0.04699738903394256,0.018276762402088774,0.005221932114882507,0.018276762402088774,0.0,0.013054830287206266,0.033942558746736295,0.0391644908616188,0.02610966057441253,0.010443864229765013,0.018276762402088774,0.010443864229765013,0.0,0.0026109660574412533,0.020887728459530026,0.015665796344647518,0.0026109660574412533,0.04177545691906005,0.028720626631853787,0.033942558746736295,0.04177545691906005,0.02610966057441253,0.0,0.0,0.0,0.018276762402088774,0.018276762402088774,0.018276762402088774,0.033942558746736295,0.0,0.03655352480417755,0.028720626631853787,0.05483028720626632,0.033942558746736295,0.0,0.05483028720626632,0.04177545691906005,0.0026109660574412533
S16_D14 hbo,0.0,0.02666666666666667,0.04,0.0,0.02,0.0,0.03666666666666667,0.013333333333333334,0.02666666666666667,0.01,0.0,0.03333333333333333,0.0,0.05,0.03666666666666667,0.023333333333333334,0.006666666666666667,0.0,0.0,0.0,0.02,0.03,0.01,0.013333333333333334,0.023333333333333334,0.013333333333333334,0.0,0.0,0.02666666666666667,0.02,0.0,0.056666666666666664,0.03666666666666667,0.043333333333333335,0.05333333333333334,0.03333333333333333,0.0,0.0,0.0,0.023333333333333334,0.023333333333333334,0.023333333333333334,0.02,0.0,0.023333333333333334,0.013333333333333334,0.04666666666666667,0.02,0.0,0.05,0.05333333333333334,0.0
S16_D16 hbo,0.12962962962962962,0.0,0.0,0.0,0.0,0.0,0.0,0.0,0.0,0.0,0.0,0.009259259259259259,0.0,0.0,0.027777777777777776,0.1388888888888889,0.0,0.018518518518518517,0.0,0.018518518518518517,0.018518518518518517,0.018518518518518517,0.018518518518518517,0.0,0.0,0.0,0.0,0.009259259259259259,0.0,0.0,0.1388888888888889,0.0,0.0,0.0,0.046296296296296294,0.0,0.0,0.0,0.0,0.0,0.0,0.0,0.018518518518518517,0.08333333333333333,0.018518518518518517,0.018518518518518517,0.018518518518518517,0.018518518518518517,0.0,0.018518518518518517,0.0,0.21296296296296297
